#   Area   : 2.13000e-01
#   Time   areaAverage(T)
0.999427 3.001476e+02
2.00049 3.001485e+02
3.00031 3.001482e+02
3.99974 3.001474e+02
4.999837 3.001458e+02
6.00101 3.001436e+02
7.000448 3.001406e+02
8.000372 3.001364e+02
9.000012 3.001305e+02
10.0011397 3.001211e+02
11.0005122 3.001048e+02
12.0006238 3.000829e+02
13.0011019 3.000632e+02
13.9997165 3.000500e+02
14.999604052 3.000445e+02
15.999490241 3.000439e+02
17.001242034 3.000456e+02
17.999852633 3.000479e+02
18.999857436 3.000510e+02
20.00122727884 3.000573e+02
21.00187381584 3.000668e+02
22.00100414889 3.000770e+02
23.0010626149 3.000867e+02
24.00180356975 3.000956e+02
24.9999180576697 3.001036e+02
26.0014655973005 3.001108e+02
27.0009446320218 3.001168e+02
28.0017189928096 3.001216e+02
29.0005905025437 3.001250e+02
30.0001212256994272 3.001277e+02
30.9998048589166615 3.001305e+02
32.0021762548089939 3.001344e+02
33.0009351351164995 3.001408e+02
33.9993080319129248 3.001516e+02
35.0007987440267243 3.001687e+02
35.999935570682382 3.001906e+02
37.0002447568198818 3.002169e+02
38.0020517639380699 3.002460e+02
39.0021047205999594 3.002759e+02
39.9997539688104951 3.003045e+02
41.0006589550067986 3.003313e+02
42.0013813879337903 3.003561e+02
43.0017735096845684 3.003790e+02
43.9991849473790921 3.004001e+02
45.0003329032256971 3.004202e+02
45.9999068492484824 3.004399e+02
47.001536957485051 3.004602e+02
47.9991641281142023 3.004815e+02
49.0021317394396689 3.005048e+02
50.0009463053672505 3.005301e+02
51.0012666370886478 3.005579e+02
51.9998322094374927 3.005834e+02
52.9996753530399971 3.005946e+02
54.0007422711055582 3.006003e+02
54.9998679043009489 3.006033e+02
56.0000714899313863 3.006045e+02
57.0012666658164022 3.006042e+02
58.0001899337214937 3.006025e+02
58.9996004203221318 3.005992e+02
59.9991236109394279 3.005943e+02
61.0014552580688658 3.005882e+02
61.9999507022612235 3.005809e+02
63.0004219672197294 3.005725e+02
63.9995194435486567 3.005635e+02
65.0003556224504706 3.005541e+02
66.0000361794755719 3.005444e+02
67.001887377399612 3.005346e+02
68.0000065359423758 3.005245e+02
69.0007263708385352 3.005141e+02
70.0010828434766097 3.005034e+02
71.0011308160644177 3.004922e+02
72.0010657830553242 3.004806e+02
73.0011594507886201 3.004687e+02
74.0010423929848571 3.004566e+02
74.9999534897155655 3.004442e+02
76.0005492403212486 3.004314e+02
76.9995770635736392 3.004184e+02
78.0002485694065797 3.004050e+02
78.9995834115051707 3.003913e+02
80.0006023391171937 3.003770e+02
81.0000315951638044 3.003623e+02
82.0004067459523469 3.003475e+02
83.0017178852837816 3.003325e+02
84.0013241745725452 3.003171e+02
84.9995909994996879 3.003014e+02
85.9997634074401986 3.002853e+02
87.0020461965104488 3.002689e+02
88.0006674088208882 3.002519e+02
89.0018544823108897 3.002349e+02
89.9998161821016822 3.002179e+02
91.0007625519268686 3.002011e+02
92.0018377502737508 3.001841e+02
93.0000923171710951 3.001666e+02
94.0015321602183462 3.001481e+02
95.0002779543519154 3.001293e+02
95.9992979485388247 3.001103e+02
97.0016130797858978 3.000910e+02
98.0012359507447854 3.000715e+02
99.0011565037065537 3.000518e+02
100.001341885630765 3.000312e+02
101.001743248606445 3.000099e+02
101.99928296452731 2.999882e+02
102.999917386210626 2.999663e+02
104.000496689142608 2.999443e+02
105.000863757907709 2.999219e+02
106.000845363239279 2.998986e+02
107.000250191257649 2.998741e+02
108.001970911651242 2.998485e+02
108.999952325312094 2.998226e+02
110.000285452353893 2.997959e+02
111.000066931614725 2.997688e+02
111.999600382166875 2.997408e+02
112.999337151135848 2.997124e+02
113.9997698736438 2.996840e+02
115.001378027942778 2.996559e+02
116.001770300293103 2.996277e+02
117.001653593576464 2.995993e+02
118.001046177865348 2.995706e+02
118.999684004199594 2.995414e+02
120.00052278213569 2.995117e+02
121.000374583798148 2.994818e+02
121.999348928442913 2.994524e+02
123.000517969016542 2.994236e+02
124.00081552540631 2.993955e+02
125.000090042359716 2.993682e+02
126.001292042010718 2.993417e+02
127.001177421408627 2.993160e+02
127.999570074465595 2.992907e+02
128.999445625667022 2.992658e+02
130.00074597468074 2.992408e+02
131.000311770203012 2.992156e+02
132.001147958866653 2.991894e+02
133.000062069143127 2.991627e+02
134.000012802756146 2.991351e+02
135.000741042250809 2.991063e+02
136.002013908372845 2.990764e+02
137.000598606341782 2.990456e+02
137.999511013812736 2.990148e+02
139.001814551015428 2.989850e+02
140.001311036373238 2.989567e+02
141.001113987129486 2.989255e+02
142.001025535356888 2.988913e+02
143.000741370303018 2.988557e+02
144.000104315494326 2.988201e+02
144.999195410391962 2.987865e+02
146.001322734456323 2.987545e+02
147.000345261960405 2.987241e+02
147.999500015362372 2.986922e+02
149.002051522493304 2.986566e+02
150.001795079176958 2.986178e+02
151.001898572839906 2.985765e+02
151.999389888575053 2.985351e+02
153.000535291621787 2.984960e+02
154.00211074591067 2.984580e+02
155.000792355030114 2.984219e+02
155.999484108062632 2.983876e+02
157.001187348315909 2.983563e+02
157.999616357581601 2.983285e+02
159.000877463324798 2.983027e+02
160.001509151923443 2.982771e+02
161.001332418180425 2.982542e+02
162.000390958998082 2.982336e+02
163.001895104548367 2.982143e+02
163.999581954365425 2.981964e+02
164.999802795413984 2.981783e+02
165.99952398718321 2.981613e+02
167.002106103982783 2.981461e+02
168.001678340149027 2.981310e+02
169.001691029210832 2.981145e+02
169.999295220681347 2.980984e+02
171.001011018967404 2.980853e+02
172.000854601078032 2.980780e+02
173.001726270302441 2.980756e+02
174.000084079832391 2.980739e+02
175.001987395288211 2.980686e+02
176.00101104567716 2.980573e+02
177.000245223879006 2.980412e+02
178.002770115093398 2.980258e+02
179.002253576211984 2.980177e+02
180.001876604371603 2.980183e+02
181.001693906140076 2.980252e+02
182.001164777802018 2.980340e+02
183.002941849998393 2.980408e+02
184.000615357282129 2.980421e+02
185.000873306827543 2.980359e+02
186.001299445049881 2.980316e+02
187.002266321453874 2.980334e+02
188.000794538116622 2.980385e+02
189.0031186992953 2.980484e+02
190.002959966323942 2.980603e+02
191.002613747371726 2.980720e+02
192.000625015376272 2.980832e+02
193.003334956586372 2.980903e+02
194.001638199605623 2.980911e+02
195.001786419251886 2.980881e+02
196.002694430367967 2.980813e+02
197.002834094887078 2.980720e+02
198.002096499151548 2.980641e+02
199.002538698758173 2.980572e+02
200.001640226495937 2.980473e+02
201.002646387517046 2.980367e+02
202.002953915048465 2.980243e+02
203.002885705748781 2.980109e+02
204.0020533927526 2.979981e+02
205.002705458888983 2.979859e+02
206.00115760294068 2.979744e+02
207.00337860261692 2.979662e+02
208.002546420542728 2.979617e+02
209.001339982254024 2.979597e+02
210.002420533091708 2.979594e+02
211.001971411078756 2.979605e+02
212.002944468339479 2.979631e+02
213.00214623070309 2.979655e+02
214.002140407383166 2.979685e+02
215.003362274554689 2.979732e+02
216.003562713325152 2.979799e+02
217.002193451384102 2.979884e+02
218.002471063980408 2.979979e+02
219.001890676023208 2.980079e+02
220.003546270447714 2.980186e+02
221.001572110975786 2.980303e+02
222.002679856759073 2.980436e+02
223.003548780292391 2.980584e+02
224.004032185234792 2.980743e+02
225.001731167136541 2.980928e+02
226.002971155232785 2.981131e+02
227.001650650961778 2.981348e+02
228.00150726334104 2.981547e+02
229.002897545789381 2.981718e+02
230.002322870811724 2.981857e+02
231.00271171277447 2.981965e+02
232.001229519300267 2.982046e+02
233.003787181863231 2.982100e+02
234.003893278566352 2.982125e+02
235.001657717043742 2.982151e+02
236.003389737256583 2.982183e+02
237.002906448583332 2.982210e+02
238.003223626172712 2.982230e+02
239.004250414209537 2.982247e+02
240.00281269277761 2.982267e+02
241.001975408375557 2.982295e+02
242.001701472236249 2.982335e+02
243.001885819211424 2.982395e+02
244.002366169441615 2.982470e+02
245.003121801604038 2.982530e+02
246.004118267257553 2.982642e+02
247.001962811579887 2.982787e+02
248.002661903911871 2.982953e+02
249.002847787099654 2.983131e+02
250.002371141882492 2.983338e+02
251.001503722442237 2.983583e+02
252.003720046600648 2.983861e+02
253.002135352000494 2.984151e+02
254.002714351167754 2.984452e+02
255.003300281271834 2.984745e+02
256.003821607171801 2.985020e+02
257.003033575679694 2.985286e+02
258.001309642092679 2.985539e+02
259.003273576267873 2.985771e+02
260.001743111227427 2.985978e+02
261.00167787362949 2.986171e+02
262.00148187520233 2.986341e+02
263.00202448056848 2.986484e+02
264.001465770384186 2.986613e+02
265.002785484923152 2.986742e+02
266.001791078854069 2.986860e+02
267.000987404578325 2.986969e+02
268.001646748974679 2.987083e+02
269.001844271256459 2.987207e+02
270.002933936694717 2.987318e+02
271.003021395887288 2.987426e+02
272.001486898487656 2.987538e+02
273.000623986228561 2.987650e+02
274.000220101999389 2.987739e+02
275.001237473646427 2.987825e+02
276.001933367492313 2.987912e+02
277.000998493565248 2.987982e+02
278.002488825234138 2.988039e+02
279.002548369941962 2.988088e+02
280.000600376680779 2.988140e+02
281.002331992830307 2.988174e+02
282.000291137123668 2.988211e+02
283.000474433799866 2.988260e+02
284.00026948262132 2.988319e+02
285.00326163117677 2.988383e+02
286.00305149944262 2.988447e+02
287.002400622196035 2.988524e+02
288.001578713004164 2.988611e+02
289.000861405746548 2.988698e+02
290.002991078781065 2.988788e+02
291.001720192664834 2.988888e+02
292.000549129928345 2.988992e+02
293.002523379600291 2.989091e+02
294.001126864254388 2.989195e+02
295.002741242927186 2.989304e+02
296.001582734677186 2.989408e+02
297.000366890081011 2.989509e+02
298.001998022842372 2.989618e+02
299.000786191502016 2.989727e+02
300.002888778427575 2.989829e+02
301.001720932464593 2.989935e+02
302.000534233209521 2.990047e+02
303.002841019616881 2.990154e+02
304.002170093909967 2.990257e+02
305.001344291427245 2.990368e+02
306.000851665272705 2.990479e+02
307.000789905080808 2.990583e+02
308.00068809754606 2.990688e+02
309.000647642819899 2.990798e+02
310.001146218368945 2.990903e+02
311.001922257973945 2.991002e+02
312.002604450653166 2.991108e+02
313.000471171783147 2.991219e+02
314.001970650453359 2.991324e+02
315.00046734898018 2.991428e+02
316.001983735447027 2.991542e+02
317.00083558095514 2.991659e+02
318.003192368509474 2.991769e+02
319.002389175557425 2.991883e+02
320.001613611247308 2.992009e+02
321.001323498812724 2.992133e+02
322.001282620324503 2.992254e+02
323.001146253172294 2.992383e+02
324.001231589510724 2.992520e+02
325.001770890239129 2.992652e+02
326.002299993000747 2.992784e+02
327.002754133017163 2.992925e+02
328.000516406616839 2.993069e+02
329.001670772636942 2.993206e+02
330.002680851639923 2.993348e+02
331.000648736170717 2.993496e+02
332.002103548416812 2.993641e+02
333.000547014409733 2.993780e+02
334.001827589979655 2.993913e+02
335.000582376312138 2.994057e+02
336.002047098596677 2.994197e+02
337.003196604022321 2.994344e+02
338.002519484400125 2.994494e+02
339.001669213686057 2.994639e+02
340.002159299320795 2.994787e+02
341.0032274928231 2.994931e+02
342.003131119132206 2.995075e+02
343.001794842503443 2.995218e+02
344.001886094978033 2.995370e+02
345.000209377749343 2.995521e+02
346.002551101594634 2.995661e+02
347.003142469897796 2.995797e+02
348.003088666435531 2.995936e+02
349.001649524291679 2.996069e+02
350.000275611165762 2.996193e+02
351.003122241391736 2.996321e+02
352.003168188071356 2.996455e+02
353.001908106129918 2.996582e+02
354.002983143880613 2.996699e+02
355.002482964033277 2.996821e+02
356.003131819852513 2.996943e+02
357.002079273174104 2.997051e+02
358.002784769965615 2.997155e+02
359.002597842865782 2.997265e+02
360.001077275045702 2.997371e+02
361.000394356081813 2.997467e+02
362.00121089947902 2.997563e+02
363.001931771474517 2.997668e+02
364.001547154479738 2.997768e+02
365.001328838326572 2.997857e+02
366.002622287663769 2.997954e+02
367.001425006587624 2.998059e+02
368.002125199082343 2.998160e+02
369.002302719507099 2.998255e+02
370.001114159384883 2.998364e+02
371.001111439686497 2.998477e+02
372.002665408927385 2.998583e+02
373.003093392576488 2.998687e+02
374.002521678363735 2.998805e+02
375.00042436592588 2.998923e+02
376.002464379381252 2.999032e+02
377.002965864659416 2.999147e+02
378.002950167386416 2.999274e+02
379.001495403039598 2.999397e+02
380.000341828368107 2.999509e+02
381.000608142307613 2.999632e+02
382.000919862172566 2.999764e+02
383.0028951470224 2.999889e+02
384.001437524754067 3.000006e+02
385.001520272528467 3.000138e+02
386.002238703210935 3.000274e+02
387.001375256306574 3.000396e+02
388.002715272591956 3.000514e+02
389.002765934108936 3.000645e+02
390.00087140534265 3.000774e+02
391.003225960766201 3.000887e+02
392.001143488125422 3.001001e+02
393.001350529614626 3.001131e+02
394.00309801726155 3.001250e+02
395.00245105564278 3.001351e+02
396.000270002548973 3.001459e+02
397.000910222455559 3.001578e+02
398.000206650769599 3.001679e+02
399.002823896622033 3.001766e+02
400.000806856945076 3.001866e+02
401.002204100831534 3.001973e+02
402.002252650986975 3.002058e+02
403.002030959336707 3.002133e+02
404.000430634520569 3.002224e+02
405.002793764320927 3.002318e+02
406.000540416591036 3.002390e+02
407.003799185725256 3.002462e+02
408.002897457683787 3.002555e+02
409.003189147918079 3.002645e+02
410.001607886505781 3.002715e+02
411.00212440406159 3.002793e+02
412.001976666663154 3.002890e+02
413.003184977935405 3.002976e+02
414.001997684998457 3.003045e+02
415.002796023308463 3.003133e+02
416.003412248042139 3.003236e+02
417.00229198673253 3.003323e+02
418.001386160544087 3.003402e+02
419.002524275306826 3.003500e+02
420.00385043570725 3.003605e+02
421.003259632652998 3.003692e+02
422.002477673105773 3.003780e+02
423.003942289790416 3.003890e+02
424.002794417381267 3.004000e+02
425.002580004041647 3.004096e+02
426.001911898943263 3.004200e+02
427.003707512291896 3.004316e+02
428.003048532367188 3.004424e+02
429.003057562215304 3.004519e+02
430.002479986727622 3.004622e+02
431.001520872240917 3.004735e+02
432.001340594308203 3.004836e+02
433.001582000935684 3.004924e+02
434.004293602757912 3.005023e+02
435.003721506678573 3.005127e+02
436.003948587388152 3.005216e+02
437.001293362284912 3.005299e+02
438.004317340869818 3.005394e+02
439.004313502413765 3.005489e+02
440.001911010227161 3.005569e+02
441.002590010302868 3.005648e+02
442.002913444212709 3.005734e+02
443.003562173599505 3.005815e+02
444.001546842810399 3.005885e+02
445.002566589201365 3.005958e+02
446.003560513997911 3.006035e+02
447.001764609847555 3.006105e+02
448.003258810209047 3.006172e+02
449.001701774947264 3.006238e+02
450.003364728397685 3.006302e+02
451.002060585094966 3.006364e+02
452.004039281769053 3.006425e+02
453.003034218925961 3.006483e+02
454.002135331356442 3.006541e+02
455.001322142904542 3.006596e+02
456.003707631281998 3.006649e+02
457.003039537586915 3.006699e+02
458.002427625936207 3.006746e+02
459.001866320175282 3.006792e+02
460.001362586813912 3.006836e+02
461.004063173517807 3.006877e+02
462.003682292350618 3.006916e+02
463.00330114383155 3.006954e+02
464.002897850705438 3.006989e+02
465.002441705969204 3.007024e+02
466.001894542363175 3.007059e+02
467.004354544027251 3.007095e+02
468.003526613367455 3.007132e+02
469.002482343367376 3.007170e+02
470.004300947885667 3.007209e+02
471.005826798223893 3.007250e+02
472.003902945054676 3.007291e+02
473.004723766220025 3.007334e+02
474.005109351628789 3.007378e+02
475.004996110445063 3.007423e+02
476.004332865818753 3.007469e+02
477.003071878511832 3.007515e+02
478.004289393884733 3.007562e+02
479.004848937522183 3.007608e+02
480.004758644368621 3.007655e+02
481.004036892804265 3.007706e+02
482.005792557090672 3.007761e+02
483.003860088504325 3.007813e+02
484.00454145897038 3.007859e+02
485.004889289762843 3.007895e+02
486.004937759616837 3.007929e+02
487.004840448711263 3.007970e+02
488.004726708583348 3.008021e+02
489.004816796733337 3.008083e+02
490.004988798443094 3.008159e+02
491.005058820219745 3.008250e+02
492.004957820145364 3.008354e+02
493.004780217105861 3.008472e+02
494.004716848735541 3.008594e+02
495.005040265702405 3.008724e+02
496.006086701935601 3.008842e+02
497.004929727593833 3.008931e+02
498.004631051747822 3.009004e+02
499.00487433233576 3.009075e+02
500.005388162193299 3.009150e+02
501.006031867330705 3.009224e+02
502.00357472347315 3.009290e+02
503.004106512853696 3.009357e+02
504.004393300494712 3.009436e+02
505.004300837279288 3.009541e+02
506.003726573014887 3.009641e+02
507.005752026852349 3.009732e+02
508.004158621999466 3.009806e+02
509.005156680618597 3.009880e+02
510.005637234144842 3.009944e+02
511.005615529949466 3.009985e+02
512.005025745042076 3.010019e+02
513.0037748954677 3.010055e+02
514.004929222116516 3.010086e+02
515.005389655772092 3.010107e+02
516.00514846219528 3.010114e+02
517.004140485785797 3.010109e+02
518.005416564221832 3.010093e+02
519.00582431802934 3.010065e+02
520.005400617434134 3.010029e+02
521.004238602804662 3.009984e+02
522.00554216630178 3.009925e+02
523.006388897861825 3.009846e+02
524.003837733661726 3.009730e+02
525.004093204258311 3.009600e+02
526.004136356958384 3.009446e+02
527.003978297694061 3.009272e+02
528.003724104088178 3.009099e+02
529.003511105671123 3.008923e+02
530.006496649043015 3.008746e+02
531.003720843506471 3.008580e+02
532.004725050862362 3.008446e+02
533.003524870175283 3.008339e+02
534.006254385191482 3.008251e+02
535.003670007282722 3.008189e+02
536.005168991910978 3.008147e+02
537.004807209321484 3.008151e+02
538.005684920087333 3.008213e+02
539.004678725726762 3.008314e+02
540.004866312757031 3.008432e+02
541.006283599711651 3.008563e+02
542.005840353986173 3.008686e+02
543.006518919497466 3.008791e+02
544.005006595300529 3.008839e+02
545.004080451904997 3.008843e+02
546.006520451429765 3.008802e+02
547.005896874222685 3.008726e+02
548.005267423465853 3.008617e+02
549.004730045318752 3.008455e+02
550.00446180859683 3.008259e+02
551.004470420393091 3.008015e+02
552.004600616322932 3.007739e+02
553.004708775041308 3.007448e+02
554.004292168881648 3.007149e+02
555.005853845253682 3.006868e+02
556.006443256153261 3.006606e+02
557.006470161665789 3.006346e+02
558.006380911529504 3.006112e+02
559.005789036750571 3.005906e+02
560.003775138759352 3.005731e+02
561.006282442686711 3.005599e+02
562.003950774244004 3.005538e+02
563.006096136300357 3.005534e+02
564.003602829010219 3.005562e+02
565.005891436286902 3.005620e+02
566.004020094604584 3.005723e+02
567.004539887841361 3.005866e+02
568.004851172619965 3.006023e+02
569.005449714536326 3.006156e+02
570.00361397116535 3.006264e+02
571.005707487181894 3.006389e+02
572.005691272009585 3.006533e+02
573.00648438122721 3.006686e+02
574.004947629586241 3.006823e+02
575.004104929150003 3.006930e+02
576.00373760697255 3.007037e+02
577.006446241903745 3.007171e+02
578.005504580968136 3.007374e+02
579.003899910056134 3.007626e+02
580.005492864678104 3.007871e+02
581.004631281408365 3.008062e+02
582.004506419765676 3.008242e+02
583.005000776035104 3.008446e+02
584.005964808863496 3.008702e+02
585.00433092122762 3.008985e+02
586.006070172315845 3.009288e+02
587.004696443063153 3.009541e+02
588.006093960259136 3.009738e+02
589.004015026942739 3.009920e+02
590.004590518810915 3.010107e+02
591.004770127260485 3.010306e+02
592.004660758921318 3.010528e+02
593.004308618240429 3.010771e+02
594.003849437108443 3.011023e+02
595.003484603764832 3.011274e+02
596.006438054760224 3.011557e+02
597.006477257625647 3.011879e+02
598.00353514366725 3.012225e+02
599.003834527573304 3.012553e+02
600.004257328154267 3.012836e+02
601.00456288510361 3.013084e+02
602.004532320851581 3.013324e+02
603.004192691644789 3.013562e+02
604.003719226186945 3.013776e+02
605.006318033088746 3.013945e+02
606.005833307646299 3.014070e+02
607.005321029710785 3.014173e+02
608.004748774007908 3.014277e+02
609.004166337454421 3.014388e+02
610.003655982459918 3.014497e+02
611.006382490574538 3.014594e+02
612.006042608356665 3.014687e+02
613.005721040291519 3.014772e+02
