# Region type : patch node2U_1_Outlet_0
#   Faces  : 148
#   Area   : 1.734768e-02
#        Time	areaAverage(T)
     0.999427	3.001500e+02
      2.00049	3.001500e+02
      3.00031	3.001500e+02
      3.99974	3.001500e+02
     4.999837	3.001500e+02
      6.00101	3.001500e+02
     7.000448	3.001500e+02
     8.000372	3.001500e+02
     9.000012	3.001500e+02
   10.0011397	3.001498e+02
   11.0005122	3.001546e+02
   12.0006238	3.001593e+02
   13.0011019	3.001640e+02
   13.9997165	3.001687e+02
 14.999604052	3.001733e+02
 15.999490241	3.001779e+02
 17.001242034	3.001826e+02
 17.999852633	3.001872e+02
 18.999857436	3.001918e+02
20.00122727884	3.001965e+02
21.00187381584	3.002011e+02
22.00100414889	3.002057e+02
23.0010626149	3.002103e+02
24.00180356975	3.002149e+02
24.9999180576697	3.002195e+02
26.0014655973005	3.002241e+02
27.0009446320218	3.002287e+02
28.0017189928096	3.002333e+02
29.0005905025437	3.002379e+02
30.0001212256994272	3.002425e+02
30.9998048589166615	3.002471e+02
32.0021762548089939	3.002517e+02
33.0009351351164995	3.002562e+02
33.9993080319129248	3.002608e+02
35.0007987440267243	3.002654e+02
35.999935570682382	3.002699e+02
37.0002447568198818	3.002745e+02
38.0020517639380699	3.002791e+02
39.0021047205999594	3.002836e+02
39.9997539688104951	3.002882e+02
41.0006589550067986	3.002928e+02
42.0013813879337903	3.002975e+02
43.0017735096845684	3.003021e+02
43.9991849473790921	3.003067e+02
45.0003329032256971	3.003114e+02
45.9999068492484824	3.003162e+02
47.001536957485051	3.003210e+02
47.9991641281142023	3.003259e+02
49.0021317394396689	3.003308e+02
50.0009463053672505	3.003358e+02
51.0012666370886478	3.003408e+02
51.9998322094374927	3.003459e+02
52.9996753530399971	3.003510e+02
54.0007422711055582	3.003562e+02
54.9998679043009489	3.003614e+02
56.0000714899313863	3.003666e+02
57.0012666658164022	3.003719e+02
58.0001899337214937	3.003772e+02
58.9996004203221318	3.003825e+02
59.9991236109394279	3.003878e+02
61.0014552580688658	3.003932e+02
61.9999507022612235	3.003987e+02
63.0004219672197294	3.004041e+02
63.9995194435486567	3.004096e+02
65.0003556224504706	3.004152e+02
66.0000361794755719	3.004208e+02
67.001887377399612	3.004264e+02
68.0000065359423758	3.004321e+02
69.0007263708385352	3.004379e+02
70.0010828434766097	3.004437e+02
71.0011308160644177	3.004495e+02
72.0010657830553242	3.004554e+02
73.0011594507886201	3.004614e+02
74.0010423929848571	3.004674e+02
74.9999534897155655	3.004734e+02
76.0005492403212486	3.004794e+02
76.9995770635736392	3.004855e+02
78.0002485694065797	3.004916e+02
78.9995834115051707	3.004977e+02
80.0006023391171937	3.005039e+02
81.0000315951638044	3.005101e+02
82.0004067459523469	3.005163e+02
83.0017178852837816	3.005225e+02
84.0013241745725452	3.005287e+02
84.9995909994996879	3.005350e+02
85.9997634074401986	3.005413e+02
87.0020461965104488	3.005476e+02
88.0006674088208882	3.005539e+02
89.0018544823108897	3.005602e+02
89.9998161821016822	3.005666e+02
91.0007625519268686	3.005730e+02
92.0018377502737508	3.005794e+02
93.0000923171710951	3.005858e+02
94.0015321602183462	3.005922e+02
95.0002779543519154	3.005987e+02
95.9992979485388247	3.006051e+02
97.0016130797858978	3.006116e+02
98.0012359507447854	3.006181e+02
99.0011565037065537	3.006247e+02
100.001341885630765	3.006312e+02
101.001743248606445	3.006378e+02
101.99928296452731	3.006444e+02
102.999917386210626	3.006510e+02
104.000496689142608	3.006576e+02
105.000863757907709	3.006642e+02
106.000845363239279	3.006709e+02
107.000250191257649	3.006775e+02
108.001970911651242	3.006842e+02
108.999952325312094	3.006908e+02
110.000285452353893	3.006975e+02
111.000066931614725	3.007042e+02
111.999600382166875	3.007108e+02
112.999337151135848	3.007175e+02
113.9997698736438	3.007242e+02
115.001378027942778	3.007310e+02
116.001770300293103	3.007377e+02
117.001653593576464	3.007445e+02
118.001046177865348	3.007513e+02
118.999684004199594	3.007581e+02
120.00052278213569	3.007650e+02
121.000374583798148	3.007719e+02
121.999348928442913	3.007789e+02
123.000517969016542	3.007859e+02
124.00081552540631	3.007930e+02
125.000090042359716	3.008001e+02
126.001292042010718	3.008072e+02
127.001177421408627	3.008143e+02
127.999570074465595	3.008215e+02
128.999445625667022	3.008287e+02
130.00074597468074	3.008359e+02
131.000311770203012	3.008431e+02
132.001147958866653	3.008504e+02
133.000062069143127	3.008577e+02
134.000012802756146	3.008650e+02
135.000741042250809	3.008723e+02
136.002013908372845	3.008797e+02
137.000598606341782	3.008870e+02
137.999511013812736	3.008944e+02
139.001814551015428	3.009018e+02
140.001311036373238	3.009092e+02
141.001113987129486	3.009166e+02
142.001025535356888	3.009241e+02
143.000741370303018	3.009315e+02
144.000104315494326	3.009390e+02
144.999195410391962	3.009464e+02
146.001322734456323	3.009539e+02
147.000345261960405	3.009614e+02
147.999500015362372	3.009689e+02
149.002051522493304	3.009764e+02
150.001795079176958	3.009838e+02
151.001898572839906	3.009913e+02
151.999389888575053	3.009988e+02
153.000535291621787	3.010063e+02
154.00211074591067	3.010138e+02
155.000792355030114	3.010213e+02
155.999484108062632	3.010288e+02
157.001187348315909	3.010363e+02
157.999616357581601	3.010438e+02
159.000877463324798	3.010513e+02
160.001509151923443	3.010588e+02
161.001332418180425	3.010663e+02
162.000390958998082	3.010737e+02
163.001895104548367	3.010812e+02
163.999581954365425	3.010886e+02
164.999802795413984	3.010960e+02
165.99952398718321	3.011034e+02
167.002106103982783	3.011108e+02
168.001678340149027	3.011182e+02
169.001691029210832	3.011255e+02
169.999295220681347	3.011328e+02
171.001011018967404	3.011401e+02
172.000854601078032	3.011474e+02
173.001726270302441	3.011546e+02
174.000084079832391	3.011618e+02
175.001987395288211	3.011690e+02
176.00101104567716	3.011761e+02
177.000245223879006	3.011831e+02
178.002770115093398	3.011903e+02
179.002253576211984	3.011973e+02
180.001876604371603	3.012042e+02
181.001693906140076	3.012112e+02
182.001164777802018	3.012180e+02
183.002941849998393	3.012249e+02
184.000615357282129	3.012316e+02
185.000873306827543	3.012382e+02
186.001299445049881	3.012447e+02
187.002266321453874	3.012511e+02
188.000794538116622	3.012574e+02
189.0031186992953	3.012635e+02
190.002959966323942	3.012693e+02
191.002613747371726	3.012751e+02
192.000625015376272	3.012806e+02
193.003334956586372	3.012861e+02
194.001638199605623	3.012915e+02
195.001786419251886	3.012968e+02
196.002694430367967	3.013020e+02
197.002834094887078	3.013071e+02
198.002096499151548	3.013121e+02
199.002538698758173	3.013169e+02
200.001640226495937	3.013218e+02
201.002646387517046	3.013268e+02
202.002953915048465	3.013319e+02
203.002885705748781	3.013371e+02
204.0020533927526	3.013424e+02
205.002705458888983	3.013479e+02
206.00115760294068	3.013534e+02
207.00337860261692	3.013591e+02
208.002546420542728	3.013645e+02
209.001339982254024	3.013699e+02
210.002420533091708	3.013752e+02
211.001971411078756	3.013804e+02
212.002944468339479	3.013856e+02
213.00214623070309	3.013908e+02
214.002140407383166	3.013959e+02
215.003362274554689	3.014011e+02
216.003562713325152	3.014062e+02
217.002193451384102	3.014113e+02
218.002471063980408	3.014165e+02
219.001890676023208	3.014216e+02
220.003546270447714	3.014268e+02
221.001572110975786	3.014320e+02
222.002679856759073	3.014372e+02
223.003548780292391	3.014424e+02
224.004032185234792	3.014477e+02
225.001731167136541	3.014530e+02
226.002971155232785	3.014583e+02
227.001650650961778	3.014637e+02
228.00150726334104	3.014691e+02
229.002897545789381	3.014745e+02
230.002322870811724	3.014800e+02
231.00271171277447	3.014856e+02
232.001229519300267	3.014912e+02
233.003787181863231	3.014969e+02
234.003893278566352	3.015025e+02
235.001657717043742	3.015082e+02
236.003389737256583	3.015139e+02
237.002906448583332	3.015195e+02
238.003223626172712	3.015252e+02
239.004250414209537	3.015308e+02
240.00281269277761	3.015365e+02
241.001975408375557	3.015421e+02
242.001701472236249	3.015478e+02
243.001885819211424	3.015534e+02
244.002366169441615	3.015590e+02
245.003121801604038	3.015647e+02
246.004118267257553	3.015704e+02
247.001962811579887	3.015760e+02
248.002661903911871	3.015817e+02
249.002847787099654	3.015873e+02
250.002371141882492	3.015930e+02
251.001503722442237	3.015986e+02
252.003720046600648	3.016042e+02
253.002135352000494	3.016098e+02
254.002714351167754	3.016153e+02
255.003300281271834	3.016209e+02
256.003821607171801	3.016264e+02
257.003033575679694	3.016320e+02
258.001309642092679	3.016375e+02
259.003273576267873	3.016431e+02
260.001743111227427	3.016487e+02
261.00167787362949	3.016543e+02
262.00148187520233	3.016599e+02
263.00202448056848	3.016656e+02
264.001465770384186	3.016714e+02
265.002785484923152	3.016771e+02
266.001791078854069	3.016827e+02
267.000987404578325	3.016883e+02
268.001646748974679	3.016939e+02
269.001844271256459	3.016994e+02
270.002933936694717	3.017050e+02
271.003021395887288	3.017106e+02
272.001486898487656	3.017161e+02
273.000623986228561	3.017216e+02
274.000220101999389	3.017271e+02
275.001237473646427	3.017326e+02
276.001933367492313	3.017381e+02
277.000998493565248	3.017436e+02
278.002488825234138	3.017490e+02
279.002548369941962	3.017544e+02
280.000600376680779	3.017598e+02
281.002331992830307	3.017652e+02
282.000291137123668	3.017706e+02
283.000474433799866	3.017759e+02
284.00026948262132	3.017813e+02
285.00326163117677	3.017866e+02
286.00305149944262	3.017919e+02
287.002400622196035	3.017972e+02
288.001578713004164	3.018025e+02
289.000861405746548	3.018078e+02
290.002991078781065	3.018131e+02
291.001720192664834	3.018184e+02
292.000549129928345	3.018238e+02
293.002523379600291	3.018291e+02
294.001126864254388	3.018344e+02
295.002741242927186	3.018398e+02
296.001582734677186	3.018452e+02
297.000366890081011	3.018505e+02
298.001998022842372	3.018559e+02
299.000786191502016	3.018613e+02
300.002888778427575	3.018668e+02
301.001720932464593	3.018722e+02
302.000534233209521	3.018777e+02
303.002841019616881	3.018831e+02
304.002170093909967	3.018886e+02
305.001344291427245	3.018941e+02
306.000851665272705	3.018996e+02
307.000789905080808	3.019052e+02
308.00068809754606	3.019107e+02
309.000647642819899	3.019162e+02
310.001146218368945	3.019218e+02
311.001922257973945	3.019274e+02
312.002604450653166	3.019330e+02
313.000471171783147	3.019385e+02
314.001970650453359	3.019442e+02
315.00046734898018	3.019498e+02
316.001983735447027	3.019554e+02
317.00083558095514	3.019611e+02
318.003192368509474	3.019668e+02
319.002389175557425	3.019724e+02
320.001613611247308	3.019781e+02
321.001323498812724	3.019838e+02
322.001282620324503	3.019895e+02
323.001146253172294	3.019952e+02
324.001231589510724	3.020009e+02
325.001770890239129	3.020066e+02
326.002299993000747	3.020124e+02
327.002754133017163	3.020181e+02
328.000516406616839	3.020238e+02
329.001670772636942	3.020296e+02
330.002680851639923	3.020354e+02
331.000648736170717	3.020411e+02
332.002103548416812	3.020469e+02
333.000547014409733	3.020527e+02
334.001827589979655	3.020584e+02
335.000582376312138	3.020642e+02
336.002047098596677	3.020700e+02
337.003196604022321	3.020758e+02
338.002519484400125	3.020815e+02
339.001669213686057	3.020873e+02
340.002159299320795	3.020931e+02
341.0032274928231	3.020989e+02
342.003131119132206	3.021047e+02
343.001794842503443	3.021105e+02
344.001886094978033	3.021163e+02
345.000209377749343	3.021221e+02
346.002551101594634	3.021279e+02
347.003142469897796	3.021337e+02
348.003088666435531	3.021396e+02
349.001649524291679	3.021454e+02
350.000275611165762	3.021512e+02
351.003122241391736	3.021571e+02
352.003168188071356	3.021629e+02
353.001908106129918	3.021688e+02
354.002983143880613	3.021747e+02
355.002482964033277	3.021806e+02
356.003131819852513	3.021865e+02
357.002079273174104	3.021924e+02
358.002784769965615	3.021983e+02
359.002597842865782	3.022042e+02
360.001077275045702	3.022102e+02
361.000394356081813	3.022161e+02
362.00121089947902	3.022221e+02
363.001931771474517	3.022281e+02
364.001547154479738	3.022340e+02
365.001328838326572	3.022400e+02
366.002622287663769	3.022460e+02
367.001425006587624	3.022520e+02
368.002125199082343	3.022580e+02
369.002302719507099	3.022641e+02
370.001114159384883	3.022701e+02
371.001111439686497	3.022761e+02
372.002665408927385	3.022821e+02
373.003093392576488	3.022882e+02
374.002521678363735	3.022942e+02
375.00042436592588	3.023002e+02
376.002464379381252	3.023063e+02
377.002965864659416	3.023123e+02
378.002950167386416	3.023184e+02
379.001495403039598	3.023244e+02
380.000341828368107	3.023305e+02
381.000608142307613	3.023366e+02
382.000919862172566	3.023427e+02
383.0028951470224	3.023487e+02
384.001437524754067	3.023548e+02
385.001520272528467	3.023609e+02
386.002238703210935	3.023670e+02
387.001375256306574	3.023731e+02
388.002715272591956	3.023793e+02
389.002765934108936	3.023854e+02
390.00087140534265	3.023915e+02
391.003225960766201	3.023977e+02
392.001143488125422	3.024038e+02
393.001350529614626	3.024100e+02
394.00309801726155	3.024162e+02
395.00245105564278	3.024224e+02
396.000270002548973	3.024286e+02
397.000910222455559	3.024348e+02
398.000206650769599	3.024410e+02
399.002823896622033	3.024472e+02
400.000806856945076	3.024534e+02
401.002204100831534	3.024597e+02
402.002252650986975	3.024659e+02
403.002030959336707	3.024722e+02
404.000430634520569	3.024785e+02
405.002793764320927	3.024848e+02
406.000540416591036	3.024910e+02
407.003799185725256	3.024976e+02
408.002897457683787	3.025039e+02
409.003189147918079	3.025102e+02
410.001607886505781	3.025165e+02
411.00212440406159	3.025228e+02
412.001976666663154	3.025292e+02
413.003184977935405	3.025355e+02
414.001997684998457	3.025418e+02
415.002796023308463	3.025482e+02
416.003412248042139	3.025545e+02
417.00229198673253	3.025609e+02
418.001386160544087	3.025672e+02
419.002524275306826	3.025736e+02
420.00385043570725	3.025800e+02
421.003259632652998	3.025863e+02
422.002477673105773	3.025927e+02
423.003942289790416	3.025991e+02
424.002794417381267	3.026054e+02
425.002580004041647	3.026118e+02
426.001911898943263	3.026182e+02
427.003707512291896	3.026246e+02
428.003048532367188	3.026310e+02
429.003057562215304	3.026375e+02
430.002479986727622	3.026439e+02
431.001520872240917	3.026503e+02
432.001340594308203	3.026567e+02
433.001582000935684	3.026632e+02
434.004293602757912	3.026697e+02
435.003721506678573	3.026761e+02
436.003948587388152	3.026826e+02
437.001293362284912	3.026891e+02
438.004317340869818	3.026956e+02
439.004313502413765	3.027021e+02
440.001911010227161	3.027086e+02
441.002590010302868	3.027151e+02
442.002913444212709	3.027217e+02
443.003562173599505	3.027283e+02
444.001546842810399	3.027348e+02
445.002566589201365	3.027414e+02
446.003560513997911	3.027480e+02
447.001764609847555	3.027546e+02
448.003258810209047	3.027612e+02
449.001701774947264	3.027678e+02
450.003364728397685	3.027745e+02
451.002060585094966	3.027812e+02
452.004039281769053	3.027878e+02
453.003034218925961	3.027945e+02
454.002135331356442	3.028012e+02
455.001322142904542	3.028079e+02
456.003707631281998	3.028146e+02
457.003039537586915	3.028214e+02
458.002427625936207	3.028281e+02
459.001866320175282	3.028348e+02
460.001362586813912	3.028416e+02
461.004063173517807	3.028484e+02
462.003682292350618	3.028551e+02
463.00330114383155	3.028619e+02
464.002897850705438	3.028687e+02
465.002441705969204	3.028756e+02
466.001894542363175	3.028824e+02
467.004354544027251	3.028893e+02
468.003526613367455	3.028961e+02
469.002482343367376	3.029030e+02
470.004300947885667	3.029099e+02
471.005826798223893	3.029169e+02
472.003902945054676	3.029238e+02
473.004723766220025	3.029307e+02
474.005109351628789	3.029376e+02
475.004996110445063	3.029445e+02
476.004332865818753	3.029514e+02
477.003071878511832	3.029582e+02
478.004289393884733	3.029651e+02
479.004848937522183	3.029720e+02
480.004758644368621	3.029789e+02
481.004036892804265	3.029858e+02
482.005792557090672	3.029926e+02
483.003860088504325	3.029995e+02
484.00454145897038	3.030064e+02
485.004889289762843	3.030132e+02
486.004937759616837	3.030201e+02
487.004840448711263	3.030271e+02
488.004726708583348	3.030340e+02
489.004816796733337	3.030410e+02
490.004988798443094	3.030480e+02
491.005058820219745	3.030551e+02
492.004957820145364	3.030622e+02
493.004780217105861	3.030694e+02
494.004716848735541	3.030767e+02
495.005040265702405	3.030840e+02
496.006086701935601	3.030914e+02
497.004929727593833	3.030988e+02
498.004631051747822	3.031063e+02
499.00487433233576	3.031139e+02
500.005388162193299	3.031216e+02
501.006031867330705	3.031293e+02
502.00357472347315	3.031370e+02
503.004106512853696	3.031449e+02
504.004393300494712	3.031527e+02
505.004300837279288	3.031606e+02
506.003726573014887	3.031686e+02
507.005752026852349	3.031765e+02
508.004158621999466	3.031845e+02
509.005156680618597	3.031926e+02
510.005637234144842	3.032006e+02
511.005615529949466	3.032087e+02
512.005025745042076	3.032167e+02
513.0037748954677	3.032248e+02
514.004929222116516	3.032329e+02
515.005389655772092	3.032410e+02
516.00514846219528	3.032491e+02
517.004140485785797	3.032571e+02
518.005416564221832	3.032652e+02
519.00582431802934	3.032733e+02
520.005400617434134	3.032813e+02
521.004238602804662	3.032893e+02
522.00554216630178	3.032973e+02
523.006388897861825	3.033053e+02
524.003837733661726	3.033133e+02
525.004093204258311	3.033213e+02
526.004136356958384	3.033292e+02
527.003978297694061	3.033372e+02
528.003724104088178	3.033451e+02
529.003511105671123	3.033531e+02
530.006496649043015	3.033611e+02
531.003720843506471	3.033691e+02
532.004725050862362	3.033771e+02
533.003524870175283	3.033851e+02
534.006254385191482	3.033931e+02
535.003670007282722	3.034011e+02
536.005168991910978	3.034092e+02
537.004807209321484	3.034172e+02
538.005684920087333	3.034251e+02
539.004678725726762	3.034331e+02
540.004866312757031	3.034410e+02
541.006283599711651	3.034489e+02
542.005840353986173	3.034568e+02
543.006518919497466	3.034647e+02
544.005006595300529	3.034725e+02
545.004080451904997	3.034802e+02
546.006520451429765	3.034880e+02
547.005896874222685	3.034957e+02
548.005267423465853	3.035033e+02
549.004730045318752	3.035109e+02
550.00446180859683	3.035185e+02
551.004470420393091	3.035261e+02
552.004600616322932	3.035336e+02
553.004708775041308	3.035410e+02
554.004292168881648	3.035484e+02
555.005853845253682	3.035559e+02
556.006443256153261	3.035633e+02
557.006470161665789	3.035706e+02
558.006380911529504	3.035780e+02
559.005789036750571	3.035854e+02
560.003775138759352	3.035928e+02
561.006282442686711	3.036002e+02
562.003950774244004	3.036075e+02
563.006096136300357	3.036149e+02
564.003602829010219	3.036222e+02
565.005891436286902	3.036296e+02
566.004020094604584	3.036370e+02
567.004539887841361	3.036444e+02
568.004851172619965	3.036519e+02
569.005449714536326	3.036593e+02
570.00361397116535	3.036667e+02
571.005707487181894	3.036742e+02
572.005691272009585	3.036816e+02
573.00648438122721	3.036890e+02
574.004947629586241	3.036963e+02
575.004104929150003	3.037037e+02
576.00373760697255	3.037110e+02
577.006446241903745	3.037182e+02
578.005504580968136	3.037254e+02
579.003899910056134	3.037326e+02
580.005492864678104	3.037397e+02
581.004631281408365	3.037467e+02
582.004506419765676	3.037536e+02
583.005000776035104	3.037604e+02
584.005964808863496	3.037672e+02
585.00433092122762	3.037739e+02
586.006070172315845	3.037806e+02
587.004696443063153	3.037872e+02
588.006093960259136	3.037939e+02
589.004015026942739	3.038005e+02
590.004590518810915	3.038071e+02
591.004770127260485	3.038139e+02
592.004660758921318	3.038206e+02
593.004308618240429	3.038274e+02
594.003849437108443	3.038343e+02
595.003484603764832	3.038411e+02
596.006438054760224	3.038480e+02
597.006477257625647	3.038548e+02
598.00353514366725	3.038616e+02
599.003834527573304	3.038683e+02
600.004257328154267	3.038750e+02
601.00456288510361	3.038816e+02
602.004532320851581	3.038882e+02
603.004192691644789	3.038948e+02
604.003719226186945	3.039014e+02
605.006318033088746	3.039080e+02
606.005833307646299	3.039146e+02
607.005321029710785	3.039212e+02
608.004748774007908	3.039278e+02
609.004166337454421	3.039345e+02
