# Region type : patch node2U_0_Outlet_0
#   Faces  : 148
#   Area   : 1.734662e-02
#        Time	areaAverage(T)
     0.999427	3.031500e+02
      2.00049	3.031500e+02
      3.00031	3.031500e+02
      3.99973	3.031500e+02
      4.99982	3.031500e+02
      6.00096	3.031500e+02
      7.00036	3.031500e+02
      8.00025	3.031500e+02
      8.99988	3.031499e+02
    10.001085	3.031498e+02
    11.000692	3.031739e+02
     12.00119	3.031980e+02
    12.999644	3.032218e+02
    14.001532	3.032457e+02
  15.00188072	3.032694e+02
   15.9998521	3.032928e+02
   17.0001205	3.033161e+02
  18.00184366	3.033393e+02
  19.00135292	3.033624e+02
20.0005918367	3.033853e+02
20.9995397477	3.034081e+02
21.9999156912	3.034309e+02
23.0012895724	3.034537e+02
24.0003674065	3.034764e+02
24.999948250121	3.034991e+02
26.00012718715	3.035218e+02
27.001466255274	3.035445e+02
28.001372738785	3.035672e+02
28.999803564599	3.035897e+02
29.99944846361592	3.036123e+02
30.99971416792314	3.036348e+02
32.00002912117819	3.036573e+02
33.00002149424799	3.036798e+02
33.99970206366805	3.037021e+02
34.9994888382346261	3.037244e+02
35.9999994558824383	3.037466e+02
37.0018773517030652	3.037687e+02
37.9993327402738146	3.037906e+02
39.0009885870554669	3.038126e+02
40.0002845332203236	3.038345e+02
40.9996805758456162	3.038563e+02
42.0019339552180782	3.038782e+02
43.0010232609226932	3.039000e+02
44.0005018845220803	3.039218e+02
45.0012162640623004	3.039436e+02
46.0009897343283143	3.039653e+02
47.0001790180785832	3.039870e+02
48.0019790073555228	3.040088e+02
49.0000584196574067	3.040305e+02
49.99984640599709	3.040522e+02
51.0010593187341854	3.040740e+02
52.0004180581424436	3.040957e+02
53.0008190993681012	3.041174e+02
54.0021485675883568	3.041392e+02
55.0012784264610133	3.041610e+02
56.0011429314178599	3.041827e+02
57.0014168342299001	3.042046e+02
58.0016594690532585	3.042264e+02
59.0014252797878527	3.042482e+02
60.0003136205778702	3.042701e+02
61.001080701931528	3.042920e+02
62.0005213957178398	3.043140e+02
63.0017127486690711	3.043360e+02
64.0016381064634032	3.043580e+02
65.0003564232315227	3.043800e+02
66.0009652294406806	3.044022e+02
67.000476202615431	3.044244e+02
68.0021661056567268	3.044468e+02
69.0001959701988312	3.044692e+02
70.0010694597687575	3.044918e+02
71.0021316117222483	3.045143e+02
72.0007430364561145	3.045368e+02
73.0000455564489101	3.045592e+02
73.999146034110737	3.045815e+02
75.0001908883456707	3.046039e+02
76.0000436667727399	3.046261e+02
77.0021181459045749	3.046485e+02
78.0004897354505715	3.046707e+02
79.0011776452807766	3.046929e+02
80.0009982307494028	3.047151e+02
80.9996232330824171	3.047372e+02
81.9996276593333704	3.047593e+02
83.0009750325997544	3.047814e+02
84.0008352671088261	3.048035e+02
84.9992419303420519	3.048254e+02
85.9993964425957387	3.048474e+02
87.0014720423878032	3.048695e+02
87.9997298245688313	3.048914e+02
89.0003484943188425	3.049134e+02
90.0005423987294648	3.049354e+02
91.0004968721107588	3.049574e+02
92.000382664378634	3.049794e+02
93.000356927783514	3.050014e+02
94.0005807605929675	3.050235e+02
95.0011367318341229	3.050455e+02
96.0020523391495288	3.050676e+02
97.0004307343019576	3.050896e+02
97.999275122197929	3.051116e+02
99.0016598410722963	3.051336e+02
100.001521898879105	3.051556e+02
101.001842775653387	3.051776e+02
101.999523135465012	3.051994e+02
103.000503029726275	3.052214e+02
104.001679862132022	3.052433e+02
104.999857805894763	3.052652e+02
106.000872202795492	3.052871e+02
107.001486509367609	3.053090e+02
108.001479109868015	3.053309e+02
109.00067142973127	3.053528e+02
110.001967679187075	3.053747e+02
110.999338175346836	3.053965e+02
112.001879635745823	3.054184e+02
113.000755950322343	3.054403e+02
113.999196023840923	3.054622e+02
115.000607289495932	3.054841e+02
115.999497210627723	3.055061e+02
116.999360063478619	3.055281e+02
118.000766359280746	3.055502e+02
119.001496268604072	3.055723e+02
120.001990101047951	3.055945e+02
121.00182644090529	3.056167e+02
122.000854046904507	3.056390e+02
123.002065354488749	3.056613e+02
123.999340369654362	3.056837e+02
125.001847912576096	3.057061e+02
126.000435933482393	3.057286e+02
127.001187616790503	3.057511e+02
128.000847357581421	3.057736e+02
128.999279135768262	3.057961e+02
129.999440836993756	3.058186e+02
131.001162907742156	3.058412e+02
132.001278854907838	3.058637e+02
132.999635926991147	3.058863e+02
133.999253825556877	3.059088e+02
134.999984368913829	3.059314e+02
136.001610245680666	3.059540e+02
137.000865838881339	3.059765e+02
138.000605996394995	3.059990e+02
139.000687921125973	3.060216e+02
140.001062049305432	3.060441e+02
141.001772434786687	3.060666e+02
141.999684819475334	3.060890e+02
143.00076951814313	3.061114e+02
144.001582419281874	3.061338e+02
145.001922884608661	3.061561e+02
146.001806960798064	3.061783e+02
147.001317076955985	3.062004e+02
148.000446299306844	3.062224e+02
148.999235558215958	3.062444e+02
150.00104183283716	3.062663e+02
150.99991264813724	3.062881e+02
152.002127601530503	3.063098e+02
153.001628798881228	3.063315e+02
154.001746590970328	3.063530e+02
154.999709747561894	3.063744e+02
156.002006771375591	3.063958e+02
156.999195067494696	3.064170e+02
158.000311629687843	3.064382e+02
159.001926903793134	3.064593e+02
160.000758197588766	3.064802e+02
160.999836910799814	3.065010e+02
162.002011478213745	3.065217e+02
163.000698182442534	3.065421e+02
164.00196140524497	3.065625e+02
164.999270966020049	3.065827e+02
166.001633598095708	3.066028e+02
166.999512380859159	3.066226e+02
167.999323773974766	3.066424e+02
169.001498915793974	3.066620e+02
170.000435541774351	3.066814e+02
170.999948073721612	3.067006e+02
172.000766273232841	3.067198e+02
173.000089408640974	3.067387e+02
174.00119358036622	3.067575e+02
175.000836804712264	3.067761e+02
176.001646996434062	3.067945e+02
177.000399718168978	3.068127e+02
178.000167452474699	3.068307e+02
179.000712041583455	3.068485e+02
180.002009763952515	3.068660e+02
181.001096368904427	3.068832e+02
182.001145276918692	3.069002e+02
183.001579431880856	3.069169e+02
184.002070558137973	3.069333e+02
185.001907401764868	3.069495e+02
186.000736843983162	3.069654e+02
187.001861414754302	3.069810e+02
187.999140361200887	3.069963e+02
189.002108023991468	3.070114e+02
190.001167849139222	3.070262e+02
190.999206771037819	3.070407e+02
191.999236538280485	3.070549e+02
193.001459887401296	3.070689e+02
193.999638955872399	3.070825e+02
194.999676149749916	3.070958e+02
196.001397443033738	3.071089e+02
196.9992568405452	3.071218e+02
197.999695664844239	3.071344e+02
198.999889692173866	3.071470e+02
200.00001000946267	3.071595e+02
201.000025721484718	3.071719e+02
202.00090084271659	3.071844e+02
203.000333587842107	3.071969e+02
204.000707768455953	3.072095e+02
205.000291510830607	3.072223e+02
206.001674138252497	3.072351e+02
206.999456790520981	3.072480e+02
208.002129995644935	3.072610e+02
208.999276652179219	3.072740e+02
209.99953652676146	3.072870e+02
210.999456784332978	3.073001e+02
212.001782903633512	3.073133e+02
213.000325330571911	3.073263e+02
214.001476421188244	3.073394e+02
214.999514924187082	3.073524e+02
216.001227605430643	3.073655e+02
217.001851839044264	3.073785e+02
218.000110898020807	3.073914e+02
219.000629554038824	3.074044e+02
220.001296913732972	3.074173e+02
220.999270473629934	3.074301e+02
222.000956823787874	3.074430e+02
222.999937840544902	3.074558e+02
224.001497003018699	3.074686e+02
225.001396826364015	3.074814e+02
226.001828774732815	3.074941e+02
227.001923879091834	3.075068e+02
228.001209942462509	3.075194e+02
228.99940332569372	3.075319e+02
230.002166033701997	3.075445e+02
231.000096727941241	3.075569e+02
231.999178044472188	3.075693e+02
233.002040330756273	3.075817e+02
233.999563427198211	3.075939e+02
235.001633328433627	3.076062e+02
235.999798857902931	3.076184e+02
237.000197452507706	3.076305e+02
237.999656612672823	3.076425e+02
239.001279081014388	3.076545e+02
239.999560521160504	3.076664e+02
241.001686776451493	3.076782e+02
242.000667631852821	3.076900e+02
243.001570019284145	3.077018e+02
244.0003796352037	3.077135e+02
245.001989206129053	3.077252e+02
245.99943725677366	3.077368e+02
247.001334494583602	3.077484e+02
248.001045887583786	3.077599e+02
249.001692673150586	3.077714e+02
250.000044092378573	3.077827e+02
251.001967578495737	3.077940e+02
252.000981866954675	3.078051e+02
253.000313966001272	3.078162e+02
254.000248685661717	3.078271e+02
255.000902406740039	3.078381e+02
256.002153219615309	3.078490e+02
257.000631544372425	3.078599e+02
257.99940337949073	3.078707e+02
259.001574262039924	3.078815e+02
260.000987701928807	3.078921e+02
261.000925684200979	3.079028e+02
262.001569124918944	3.079133e+02
262.999370771059034	3.079237e+02
264.00034752693648	3.079341e+02
265.001715955383133	3.079445e+02
266.000664406796716	3.079548e+02
267.000012753799354	3.079651e+02
267.99910982955663	3.079753e+02
269.000701541105229	3.079856e+02
270.001708483683387	3.079958e+02
270.99951137798314	3.080061e+02
272.000697702657078	3.080163e+02
273.002018579891455	3.080266e+02
274.000205581636123	3.080369e+02
275.001575470153625	3.080472e+02
276.000197594390443	3.080575e+02
276.9992164712869	3.080678e+02
278.001243367150039	3.080781e+02
278.999599529310728	3.080884e+02
280.000333522165079	3.080987e+02
281.000476909040515	3.081089e+02
282.000149995020706	3.081192e+02
283.002197103271499	3.081295e+02
284.000379637292156	3.081398e+02
285.001012203510243	3.081500e+02
286.001076444831654	3.081603e+02
287.000436975189871	3.081704e+02
288.002046501910172	3.081806e+02
288.999824068398652	3.081908e+02
290.000275626230916	3.082009e+02
291.000274269183194	3.082110e+02
291.99955898483347	3.082211e+02
293.001191139576406	3.082312e+02
293.999216408513121	3.082412e+02
295.000071034484961	3.082513e+02
296.000564081584969	3.082613e+02
297.000614504448379	3.082713e+02
298.000349977717917	3.082814e+02
298.999968214517764	3.082914e+02
299.999560088315718	3.083015e+02
301.002195281138484	3.083116e+02
302.001675707413995	3.083218e+02
303.001138090472352	3.083320e+02
304.000799282258299	3.083422e+02
305.000926932348818	3.083525e+02
306.001690554722472	3.083628e+02
307.000047822748513	3.083732e+02
308.002198067349582	3.083836e+02
309.001808871584217	3.083941e+02
310.001858573359357	3.084046e+02
311.002184243258682	3.084152e+02
311.999461220165017	3.084258e+02
312.999753797771177	3.084365e+02
313.999744042724103	3.084472e+02
314.999690828328198	3.084579e+02
315.999818981944316	3.084687e+02
317.00023091619164	3.084795e+02
318.001098976863545	3.084903e+02
318.999373831436969	3.085011e+02
320.001211808147787	3.085119e+02
321.000226106069363	3.085227e+02
321.999376034933562	3.085335e+02
323.001651389070332	3.085443e+02
324.000748086089516	3.085550e+02
324.999703333702655	3.085657e+02
326.001545828889505	3.085765e+02
326.999937467213101	3.085871e+02
328.00111811584469	3.085978e+02
329.001987696958963	3.086085e+02
329.999422553698025	3.086190e+02
330.999715268247314	3.086296e+02
331.999918194926238	3.086401e+02
333.000108392727668	3.086505e+02
334.00022370975563	3.086609e+02
335.000065906066311	3.086713e+02
335.999399097867354	3.086815e+02
337.001230073471334	3.086917e+02
337.999469219042339	3.087019e+02
339.000550714207805	3.087119e+02
340.001507743738898	3.087220e+02
340.999265990458866	3.087319e+02
341.99996815002072	3.087418e+02
343.000440100121239	3.087517e+02
344.000532404831404	3.087615e+02
345.000106709154068	3.087713e+02
345.999225670617307	3.087811e+02
347.001234387934119	3.087909e+02
348.00009316047209	3.088006e+02
349.001932533937179	3.088103e+02
350.000486460507489	3.088199e+02
351.002013181575876	3.088296e+02
352.000443134278157	3.088392e+02
353.001921276936002	3.088488e+02
354.000062360057882	3.088584e+02
355.000895225558452	3.088680e+02
356.001459075669345	3.088776e+02
357.00201177678548	3.088872e+02
357.999561179209422	3.088967e+02
359.000168374413931	3.089064e+02
360.000591874349936	3.089160e+02
361.00084645387534	3.089257e+02
362.001138646943787	3.089354e+02
363.001663311250468	3.089452e+02
363.999346540087515	3.089550e+02
365.000242057282549	3.089649e+02
366.001228622373162	3.089748e+02
366.999349217430961	3.089848e+02
368.000952455183608	3.089948e+02
368.999926900583603	3.090049e+02
369.999355488438312	3.090151e+02
370.999133130106941	3.090253e+02
371.999210594023111	3.090355e+02
372.999575543232538	3.090458e+02
374.000205095512115	3.090561e+02
375.001055730509222	3.090665e+02
376.002174880347638	3.090769e+02
377.000611896637395	3.090873e+02
377.99954966619373	3.090977e+02
379.002045647678301	3.091082e+02
380.001643380302028	3.091187e+02
381.001231302158544	3.091291e+02
382.000737562198879	3.091396e+02
383.000233295269027	3.091502e+02
383.999861042211705	3.091607e+02
384.999731989993052	3.091712e+02
385.999861936302523	3.091817e+02
387.000215319285815	3.091922e+02
388.00068383679212	3.092027e+02
389.001186324506989	3.092132e+02
390.001610851117277	3.092236e+02
391.001869615681301	3.092340e+02
392.001892200649195	3.092444e+02
393.001690126302037	3.092548e+02
394.001215543129092	3.092651e+02
395.000274367074383	3.092754e+02
396.001750172953393	3.092856e+02
396.999406228935811	3.092958e+02
397.999520001533199	3.093059e+02
399.002183028809839	3.093160e+02
400.001196576230655	3.093260e+02
400.99969694708949	3.093359e+02
402.001069254807533	3.093458e+02
402.999399294612942	3.093556e+02
404.00099757103294	3.093654e+02
404.999682728240828	3.093750e+02
406.001576591325716	3.093847e+02
407.000477904558295	3.093943e+02
407.999540113344096	3.094038e+02
409.001902516955738	3.094133e+02
410.001292038800955	3.094228e+02
411.000615087625135	3.094322e+02
411.999723106324382	3.094416e+02
413.001646711634294	3.094510e+02
414.000207196156282	3.094604e+02
415.001610882202385	3.094698e+02
415.999652934693358	3.094792e+02
417.000455128680642	3.094886e+02
418.000876805147186	3.094980e+02
419.000989618787287	3.095074e+02
420.000983464306273	3.095168e+02
421.000958776981918	3.095262e+02
422.000921377193549	3.095356e+02
423.000903035610179	3.095450e+02
424.000904214156037	3.095545e+02
425.000996649867034	3.095640e+02
426.001160750606346	3.095735e+02
427.001494333960409	3.095830e+02
428.00209677977233	3.095926e+02
428.999910178610492	3.096022e+02
430.001192944803847	3.096119e+02
430.999883937068262	3.096215e+02
432.002202121200241	3.096313e+02
433.001903892023677	3.096411e+02
434.002005737559898	3.096509e+02
434.999385616044265	3.096607e+02
436.000201877582526	3.096707e+02
437.001170918164519	3.096806e+02
438.00212978450827	3.096906e+02
438.999920319968794	3.097006e+02
440.000710572743458	3.097107e+02
441.001408466297789	3.097207e+02
442.002064763753197	3.097308e+02
442.999679990907794	3.097408e+02
444.00057273407225	3.097508e+02
445.001775635677234	3.097609e+02
446.000295765137821	3.097710e+02
446.999273686880258	3.097810e+02
448.00177272814733	3.097911e+02
449.001483319675515	3.098013e+02
450.001398579097838	3.098114e+02
451.001472926408155	3.098216e+02
452.001741264542147	3.098318e+02
453.002211916973351	3.098420e+02
453.999737617464689	3.098521e+02
455.000437219421826	3.098623e+02
456.001057490577352	3.098725e+02
457.001348043989196	3.098826e+02
458.000942666287756	3.098927e+02
458.999749584671974	3.099027e+02
460.000918742720728	3.099126e+02
461.00124329032144	3.099225e+02
462.000823408848817	3.099323e+02
463.000017155035152	3.099420e+02
463.999253962609714	3.099517e+02
465.001890335189728	3.099613e+02
466.002118929764606	3.099708e+02
466.999659031784518	3.099803e+02
468.000531465963604	3.099897e+02
469.001255511123759	3.099990e+02
470.001491495706659	3.100083e+02
471.000964692035268	3.100176e+02
471.999536830846523	3.100268e+02
473.000301447331992	3.100360e+02
474.00021143251297	3.100451e+02
474.9993601687097	3.100542e+02
476.000783431550246	3.100633e+02
477.001426683457225	3.100723e+02
478.0013294679826	3.100813e+02
479.000575914768376	3.100903e+02
479.999234902912406	3.100993e+02
481.000479209138859	3.101083e+02
482.001295910090278	3.101173e+02
483.001704139410492	3.101263e+02
484.00178408342299	3.101353e+02
485.001664822552584	3.101443e+02
486.001406635918386	3.101533e+02
487.001087007316471	3.101624e+02
488.000850381713917	3.101715e+02
489.000813344166488	3.101806e+02
490.000981795566474	3.101898e+02
491.00125832246249	3.101990e+02
492.001684217808304	3.102083e+02
492.99939413848648	3.102176e+02
494.000719238769705	3.102270e+02
494.999660839723674	3.102364e+02
495.999293729543808	3.102459e+02
496.999453356528591	3.102554e+02
497.999887946345211	3.102649e+02
499.000442029133922	3.102745e+02
500.001111835344943	3.102840e+02
501.002019601352572	3.102936e+02
502.000236568689388	3.103032e+02
503.002039400038257	3.103129e+02
504.0012787918306	3.103225e+02
505.001007414161222	3.103321e+02
506.001186752185674	3.103418e+02
507.001709368306422	3.103515e+02
507.999371288790201	3.103613e+02
509.000251781738996	3.103711e+02
510.001183589321784	3.103809e+02
511.002164067143099	3.103908e+02
512.000130656694409	3.104008e+02
513.001215504268885	3.104108e+02
513.999181033360628	3.104208e+02
515.000180110856263	3.104308e+02
516.001133014596462	3.104409e+02
517.002031612560131	3.104510e+02
517.999751928516162	3.104610e+02
519.000446535678634	3.104711e+02
520.001009309554775	3.104811e+02
521.001366067921367	3.104911e+02
522.001367871790421	3.105010e+02
523.000958416949402	3.105109e+02
523.999884850454464	3.105207e+02
525.000863078397288	3.105304e+02
526.000730387074327	3.105401e+02
526.999447329576697	3.105497e+02
527.999970309836385	3.105593e+02
528.99918668330281	3.105688e+02
530.000148515173805	3.105783e+02
530.999840949936242	3.105878e+02
532.001438770098389	3.105973e+02
533.002105702725999	3.106068e+02
534.002128614176513	3.106163e+02
535.001675572193221	3.106258e+02
536.00079731984556	3.106354e+02
536.999417545581878	3.106450e+02
538.000507994268219	3.106546e+02
539.001045920197612	3.106643e+02
540.001107217858362	3.106740e+02
541.000793522413232	3.106837e+02
542.00036395165921	3.106934e+02
543.000056709638443	3.107032e+02
543.999965601871168	3.107129e+02
545.000067956279395	3.107226e+02
546.000298926345408	3.107324e+02
547.000615497026843	3.107421e+02
548.001060929089135	3.107518e+02
549.0016914245723	3.107616e+02
549.99942313618601	3.107713e+02
551.000339615319149	3.107811e+02
552.001564518718737	3.107909e+02
553.000333763680032	3.108007e+02
553.999953309227521	3.108105e+02
555.000500307863376	3.108204e+02
556.001853977236806	3.108303e+02
557.000742435261373	3.108401e+02
558.000057234439168	3.108500e+02
558.999698243294233	3.108600e+02
559.999593029056996	3.108700e+02
560.99969689862553	3.108800e+02
561.99998784127024	3.108901e+02
563.000428298000998	3.109002e+02
564.000935833766334	3.109104e+02
565.001314925658789	3.109205e+02
566.001418003635649	3.109307e+02
567.001209790490293	3.109409e+02
568.00068689245677	3.109511e+02
568.999859324308204	3.109613e+02
570.001766381477182	3.109715e+02
571.000411212337326	3.109817e+02
572.002070603366519	3.109919e+02
573.000711331323714	3.110020e+02
573.999307423024675	3.110122e+02
575.000728360617927	3.110223e+02
576.001726066406832	3.110324e+02
577.002114498358651	3.110424e+02
578.001691270227298	3.110523e+02
579.000250033733209	3.110622e+02
580.000886306321149	3.110720e+02
581.000895918832953	3.110818e+02
582.00066889190964	3.110915e+02
583.000556948397843	3.111012e+02
584.000894905743849	3.111109e+02
585.001793707317006	3.111206e+02
586.00022477092125	3.111303e+02
586.999263799181108	3.111399e+02
588.002109183619609	3.111496e+02
589.000030943304182	3.111592e+02
589.999587108224659	3.111688e+02
591.001140016381328	3.111783e+02
592.001698272853673	3.111878e+02
593.001057265885606	3.111973e+02
594.001939881682006	3.112067e+02
595.001024080226216	3.112161e+02
596.001273861919799	3.112255e+02
596.999480325205809	3.112348e+02
598.001604292596426	3.112440e+02
599.001215452755446	3.112532e+02
600.001199900228812	3.112623e+02
601.001344681704381	3.112714e+02
602.001702733897105	3.112804e+02
602.99941363408459	3.112893e+02
604.000728454961632	3.112981e+02
604.99933007184859	3.113069e+02
606.001174877580752	3.113156e+02
606.999792466388385	3.113242e+02
608.001203869894994	3.113328e+02
609.002070819266237	3.113413e+02
609.999266336824917	3.113497e+02
