#   Area   : 2.13000e-01
#   Time   areaAverage(T)
0.999427 3.031475e+02
2.00049 3.031485e+02
3.00031 3.031480e+02
3.99973 3.031469e+02
4.99982 3.031450e+02
6.00096 3.031425e+02
7.00036 3.031392e+02
8.00025 3.031345e+02
8.99988 3.031275e+02
10.001085 3.031166e+02
11.000692 3.030979e+02
12.00119 3.030741e+02
12.999644 3.030540e+02
14.001532 3.030424e+02
15.00188072 3.030394e+02
15.9998521 3.030402e+02
17.0001205 3.030425e+02
18.00184366 3.030448e+02
19.00135292 3.030478e+02
20.0005918367 3.030538e+02
20.9995397477 3.030627e+02
21.9999156912 3.030717e+02
23.0012895724 3.030795e+02
24.0003674065 3.030862e+02
24.999948250121 3.030920e+02
26.00012718715 3.030971e+02
27.001466255274 3.031014e+02
28.001372738785 3.031052e+02
28.999803564599 3.031084e+02
29.99944846361592 3.031115e+02
30.99971416792314 3.031150e+02
32.00002912117819 3.031193e+02
33.00002149424799 3.031259e+02
33.99970206366805 3.031376e+02
34.9994888382346261 3.031544e+02
35.9999994558824383 3.031770e+02
37.0018773517030652 3.032043e+02
37.9993327402738146 3.032338e+02
39.0009885870554669 3.032635e+02
40.0002845332203236 3.032913e+02
40.9996805758456162 3.033175e+02
42.0019339552180782 3.033420e+02
43.0010232609226932 3.033645e+02
44.0005018845220803 3.033856e+02
45.0012162640623004 3.034060e+02
46.0009897343283143 3.034263e+02
47.0001790180785832 3.034473e+02
48.0019790073555228 3.034700e+02
49.0000584196574067 3.034948e+02
49.99984640599709 3.035222e+02
51.0010593187341854 3.035511e+02
52.0004180581424436 3.035808e+02
53.0008190993681012 3.035979e+02
54.0021485675883568 3.036049e+02
55.0012784264610133 3.036083e+02
56.0011429314178599 3.036094e+02
57.0014168342299001 3.036086e+02
58.0016594690532585 3.036060e+02
59.0014252797878527 3.036019e+02
60.0003136205778702 3.035966e+02
61.001080701931528 3.035901e+02
62.0005213957178398 3.035827e+02
63.0017127486690711 3.035745e+02
64.0016381064634032 3.035657e+02
65.0003564232315227 3.035561e+02
66.0009652294406806 3.035462e+02
67.000476202615431 3.035359e+02
68.0021661056567268 3.035252e+02
69.0001959701988312 3.035141e+02
70.0010694597687575 3.035027e+02
71.0021316117222483 3.034907e+02
72.0007430364561145 3.034784e+02
73.0000455564489101 3.034656e+02
73.999146034110737 3.034526e+02
75.0001908883456707 3.034395e+02
76.0000436667727399 3.034263e+02
77.0021181459045749 3.034130e+02
78.0004897354505715 3.033994e+02
79.0011776452807766 3.033856e+02
80.0009982307494028 3.033714e+02
80.9996232330824171 3.033571e+02
81.9996276593333704 3.033429e+02
83.0009750325997544 3.033283e+02
84.0008352671088261 3.033136e+02
84.9992419303420519 3.032986e+02
85.9993964425957387 3.032831e+02
87.0014720423878032 3.032670e+02
87.9997298245688313 3.032505e+02
89.0003484943188425 3.032333e+02
90.0005423987294648 3.032159e+02
91.0004968721107588 3.031984e+02
92.000382664378634 3.031807e+02
93.000356927783514 3.031623e+02
94.0005807605929675 3.031431e+02
95.0011367318341229 3.031229e+02
96.0020523391495288 3.031025e+02
97.0004307343019576 3.030821e+02
97.999275122197929 3.030617e+02
99.0016598410722963 3.030417e+02
100.001521898879105 3.030217e+02
101.001842775653387 3.030012e+02
101.999523135465012 3.029800e+02
103.000503029726275 3.029587e+02
104.001679862132022 3.029372e+02
104.999857805894763 3.029154e+02
106.000872202795492 3.028929e+02
107.001486509367609 3.028693e+02
108.001479109868015 3.028453e+02
109.00067142973127 3.028204e+02
110.001967679187075 3.027947e+02
110.999338175346836 3.027685e+02
112.001879635745823 3.027419e+02
113.000755950322343 3.027150e+02
113.999196023840923 3.026876e+02
115.000607289495932 3.026597e+02
115.999497210627723 3.026313e+02
116.999360063478619 3.026023e+02
118.000766359280746 3.025727e+02
119.001496268604072 3.025428e+02
120.001990101047951 3.025127e+02
121.00182644090529 3.024828e+02
122.000854046904507 3.024532e+02
123.002065354488749 3.024245e+02
123.999340369654362 3.023979e+02
125.001847912576096 3.023728e+02
126.000435933482393 3.023489e+02
127.001187616790503 3.023254e+02
128.000847357581421 3.023022e+02
128.999279135768262 3.022790e+02
129.999440836993756 3.022552e+02
131.001162907742156 3.022303e+02
132.001278854907838 3.022042e+02
132.999635926991147 3.021762e+02
133.999253825556877 3.021467e+02
134.999984368913829 3.021154e+02
136.001610245680666 3.020819e+02
137.000865838881339 3.020455e+02
138.000605996394995 3.020073e+02
139.000687921125973 3.019693e+02
140.001062049305432 3.019328e+02
141.001772434786687 3.018961e+02
141.999684819475334 3.018573e+02
143.00076951814313 3.018154e+02
144.001582419281874 3.017723e+02
145.001922884608661 3.017313e+02
146.001806960798064 3.016942e+02
147.001317076955985 3.016601e+02
148.000446299306844 3.016265e+02
148.999235558215958 3.015910e+02
150.00104183283716 3.015535e+02
150.99991264813724 3.015144e+02
152.002127601530503 3.014744e+02
153.001628798881228 3.014323e+02
154.001746590970328 3.013885e+02
154.999709747561894 3.013426e+02
156.002006771375591 3.012933e+02
156.999195067494696 3.012420e+02
158.000311629687843 3.011920e+02
159.001926903793134 3.011490e+02
160.000758197588766 3.011151e+02
160.999836910799814 3.010886e+02
162.002011478213745 3.010659e+02
163.000698182442534 3.010435e+02
164.00196140524497 3.010197e+02
164.999270966020049 3.009952e+02
166.001633598095708 3.009738e+02
166.999512380859159 3.009590e+02
167.999323773974766 3.009482e+02
169.001498915793974 3.009384e+02
170.000435541774351 3.009275e+02
170.999948073721612 3.009161e+02
172.000766273232841 3.009061e+02
173.000089408640974 3.008980e+02
174.00119358036622 3.008922e+02
175.000836804712264 3.008855e+02
176.001646996434062 3.008741e+02
177.000399718168978 3.008572e+02
178.000167452474699 3.008365e+02
179.000712041583455 3.008162e+02
180.002009763952515 3.008001e+02
181.001096368904427 3.007890e+02
182.001145276918692 3.007834e+02
183.001579431880856 3.007840e+02
184.002070558137973 3.007887e+02
185.001907401764868 3.007931e+02
186.000736843983162 3.007946e+02
187.001861414754302 3.008042e+02
187.999140361200887 3.008129e+02
189.002108023991468 3.008189e+02
190.001167849139222 3.008238e+02
190.999206771037819 3.008286e+02
191.999236538280485 3.008333e+02
193.001459887401296 3.008373e+02
193.999638955872399 3.008404e+02
194.999676149749916 3.008421e+02
196.001397443033738 3.008421e+02
196.9992568405452 3.008397e+02
197.999695664844239 3.008343e+02
198.999889692173866 3.008256e+02
200.00001000946267 3.008181e+02
201.000025721484718 3.008184e+02
202.00090084271659 3.008271e+02
203.000333587842107 3.008414e+02
204.000707768455953 3.008599e+02
205.000291510830607 3.008821e+02
206.001674138252497 3.009059e+02
206.999456790520981 3.009269e+02
208.002129995644935 3.009422e+02
208.999276652179219 3.009522e+02
209.99953652676146 3.009586e+02
210.999456784332978 3.009609e+02
212.001782903633512 3.009584e+02
213.000325330571911 3.009530e+02
214.001476421188244 3.009482e+02
214.999514924187082 3.009457e+02
216.001227605430643 3.009467e+02
217.001851839044264 3.009529e+02
218.000110898020807 3.009631e+02
219.000629554038824 3.009743e+02
220.001296913732972 3.009823e+02
220.999270473629934 3.009852e+02
222.000956823787874 3.009837e+02
222.999937840544902 3.009843e+02
224.001497003018699 3.009953e+02
225.001396826364015 3.010200e+02
226.001828774732815 3.010542e+02
227.001923879091834 3.010829e+02
228.001209942462509 3.010949e+02
228.99940332569372 3.010913e+02
230.002166033701997 3.010821e+02
231.000096727941241 3.010763e+02
231.999178044472188 3.010732e+02
233.002040330756273 3.010657e+02
233.999563427198211 3.010475e+02
235.001633328433627 3.010237e+02
235.999798857902931 3.010109e+02
237.000197452507706 3.010182e+02
237.999656612672823 3.010375e+02
239.001279081014388 3.010510e+02
239.999560521160504 3.010445e+02
241.001686776451493 3.010148e+02
242.000667631852821 3.009742e+02
243.001570019284145 3.009435e+02
244.0003796352037 3.009333e+02
245.001989206129053 3.009396e+02
245.99943725677366 3.009520e+02
247.001334494583602 3.009598e+02
248.001045887583786 3.009610e+02
249.001692673150586 3.009635e+02
250.000044092378573 3.009783e+02
251.001967578495737 3.010063e+02
252.000981866954675 3.010366e+02
253.000313966001272 3.010590e+02
254.000248685661717 3.010746e+02
255.000902406740039 3.010883e+02
256.002153219615309 3.011022e+02
257.000631544372425 3.011151e+02
257.99940337949073 3.011283e+02
259.001574262039924 3.011445e+02
260.000987701928807 3.011622e+02
261.000925684200979 3.011774e+02
262.001569124918944 3.011890e+02
262.999370771059034 3.011970e+02
264.00034752693648 3.012029e+02
265.001715955383133 3.012057e+02
266.000664406796716 3.012029e+02
267.000012753799354 3.011954e+02
267.99910982955663 3.011880e+02
269.000701541105229 3.011838e+02
270.001708483683387 3.011822e+02
270.99951137798314 3.011797e+02
272.000697702657078 3.011761e+02
273.002018579891455 3.011747e+02
274.000205581636123 3.011789e+02
275.001575470153625 3.011887e+02
276.000197594390443 3.012017e+02
276.9992164712869 3.012145e+02
278.001243367150039 3.012287e+02
278.999599529310728 3.012456e+02
280.000333522165079 3.012653e+02
281.000476909040515 3.012851e+02
282.000149995020706 3.013031e+02
283.002197103271499 3.013211e+02
284.000379637292156 3.013394e+02
285.001012203510243 3.013585e+02
286.001076444831654 3.013764e+02
287.000436975189871 3.013921e+02
288.002046501910172 3.014073e+02
288.999824068398652 3.014224e+02
290.000275626230916 3.014370e+02
291.000274269183194 3.014503e+02
291.99955898483347 3.014634e+02
293.001191139576406 3.014778e+02
293.999216408513121 3.014927e+02
295.000071034484961 3.015063e+02
296.000564081584969 3.015179e+02
297.000614504448379 3.015292e+02
298.000349977717917 3.015427e+02
298.999968214517764 3.015580e+02
299.999560088315718 3.015720e+02
301.002195281138484 3.015818e+02
302.001675707413995 3.015899e+02
303.001138090472352 3.016011e+02
304.000799282258299 3.016160e+02
305.000926932348818 3.016308e+02
306.001690554722472 3.016429e+02
307.000047822748513 3.016536e+02
308.002198067349582 3.016657e+02
309.001808871584217 3.016753e+02
310.001858573359357 3.016830e+02
311.002184243258682 3.016878e+02
311.999461220165017 3.016933e+02
312.999753797771177 3.017002e+02
313.999744042724103 3.017039e+02
314.999690828328198 3.017096e+02
315.999818981944316 3.017149e+02
317.00023091619164 3.017181e+02
318.001098976863545 3.017196e+02
318.999373831436969 3.017205e+02
320.001211808147787 3.017209e+02
321.000226106069363 3.017203e+02
321.999376034933562 3.017193e+02
323.001651389070332 3.017159e+02
324.000748086089516 3.017112e+02
324.999703333702655 3.017059e+02
326.001545828889505 3.017021e+02
326.999937467213101 3.017002e+02
328.00111811584469 3.016982e+02
329.001987696958963 3.016960e+02
329.999422553698025 3.016948e+02
330.999715268247314 3.016979e+02
331.999918194926238 3.017048e+02
333.000108392727668 3.017152e+02
334.00022370975563 3.017284e+02
335.000065906066311 3.017435e+02
335.999399097867354 3.017608e+02
337.001230073471334 3.017782e+02
337.999469219042339 3.017942e+02
339.000550714207805 3.018094e+02
340.001507743738898 3.018244e+02
340.999265990458866 3.018390e+02
341.99996815002072 3.018523e+02
343.000440100121239 3.018634e+02
344.000532404831404 3.018744e+02
345.000106709154068 3.018869e+02
345.999225670617307 3.019008e+02
347.001234387934119 3.019128e+02
348.00009316047209 3.019209e+02
349.001932533937179 3.019278e+02
350.000486460507489 3.019372e+02
351.002013181575876 3.019495e+02
352.000443134278157 3.019610e+02
353.001921276936002 3.019684e+02
354.000062360057882 3.019740e+02
355.000895225558452 3.019817e+02
356.001459075669345 3.019922e+02
357.00201177678548 3.020033e+02
357.999561179209422 3.020124e+02
359.000168374413931 3.020204e+02
360.000591874349936 3.020294e+02
361.00084645387534 3.020400e+02
362.001138646943787 3.020492e+02
363.001663311250468 3.020551e+02
363.999346540087515 3.020610e+02
365.000242057282549 3.020704e+02
366.001228622373162 3.020836e+02
366.999349217430961 3.020977e+02
368.000952455183608 3.021099e+02
368.999926900583603 3.021200e+02
369.999355488438312 3.021305e+02
370.999133130106941 3.021425e+02
371.999210594023111 3.021520e+02
372.999575543232538 3.021587e+02
374.000205095512115 3.021632e+02
375.001055730509222 3.021671e+02
376.002174880347638 3.021702e+02
377.000611896637395 3.021704e+02
377.99954966619373 3.021644e+02
379.002045647678301 3.021571e+02
380.001643380302028 3.021492e+02
381.001231302158544 3.021412e+02
382.000737562198879 3.021310e+02
383.000233295269027 3.021199e+02
383.999861042211705 3.021095e+02
384.999731989993052 3.021008e+02
385.999861936302523 3.020935e+02
387.000215319285815 3.020888e+02
388.00068383679212 3.020849e+02
389.001186324506989 3.020836e+02
390.001610851117277 3.020834e+02
391.001869615681301 3.020852e+02
392.001892200649195 3.020877e+02
393.001690126302037 3.020898e+02
394.001215543129092 3.020932e+02
395.000274367074383 3.020989e+02
396.001750172953393 3.021086e+02
396.999406228935811 3.021221e+02
397.999520001533199 3.021353e+02
399.002183028809839 3.021481e+02
400.001196576230655 3.021640e+02
400.99969694708949 3.021842e+02
402.001069254807533 3.022069e+02
402.999399294612942 3.022288e+02
404.00099757103294 3.022464e+02
404.999682728240828 3.022622e+02
406.001576591325716 3.022800e+02
407.000477904558295 3.023011e+02
407.999540113344096 3.023232e+02
409.001902516955738 3.023423e+02
410.001292038800955 3.023569e+02
411.000615087625135 3.023688e+02
411.999723106324382 3.023806e+02
413.001646711634294 3.023927e+02
414.000207196156282 3.024046e+02
415.001610882202385 3.024158e+02
415.999652934693358 3.024267e+02
417.000455128680642 3.024380e+02
418.000876805147186 3.024501e+02
419.000989618787287 3.024637e+02
420.000983464306273 3.024785e+02
421.000958776981918 3.024934e+02
422.000921377193549 3.025084e+02
423.000903035610179 3.025244e+02
424.000904214156037 3.025413e+02
425.000996649867034 3.025598e+02
426.001160750606346 3.025765e+02
427.001494333960409 3.025910e+02
428.00209677977233 3.026035e+02
428.999910178610492 3.026149e+02
430.001192944803847 3.026253e+02
430.999883937068262 3.026331e+02
432.002202121200241 3.026378e+02
433.001903892023677 3.026403e+02
434.002005737559898 3.026407e+02
434.999385616044265 3.026392e+02
436.000201877582526 3.026373e+02
437.001170918164519 3.026354e+02
438.00212978450827 3.026328e+02
438.999920319968794 3.026278e+02
440.000710572743458 3.026205e+02
441.001408466297789 3.026137e+02
442.002064763753197 3.026072e+02
442.999679990907794 3.026015e+02
444.00057273407225 3.025953e+02
445.001775635677234 3.025901e+02
446.000295765137821 3.025864e+02
446.999273686880258 3.025844e+02
448.00177272814733 3.025840e+02
449.001483319675515 3.025839e+02
450.001398579097838 3.025835e+02
451.001472926408155 3.025843e+02
452.001741264542147 3.025860e+02
453.002211916973351 3.025884e+02
453.999737617464689 3.025913e+02
455.000437219421826 3.025955e+02
456.001057490577352 3.026008e+02
457.001348043989196 3.026076e+02
458.000942666287756 3.026137e+02
458.999749584671974 3.026212e+02
460.000918742720728 3.026290e+02
461.00124329032144 3.026399e+02
462.000823408848817 3.026558e+02
463.000017155035152 3.026743e+02
463.999253962609714 3.026961e+02
465.001890335189728 3.027200e+02
466.002118929764606 3.027442e+02
466.999659031784518 3.027636e+02
468.000531465963604 3.027788e+02
469.001255511123759 3.027907e+02
470.001491495706659 3.028011e+02
471.000964692035268 3.028111e+02
471.999536830846523 3.028215e+02
473.000301447331992 3.028326e+02
474.00021143251297 3.028440e+02
474.9993601687097 3.028561e+02
476.000783431550246 3.028680e+02
477.001426683457225 3.028805e+02
478.0013294679826 3.028940e+02
479.000575914768376 3.029086e+02
479.999234902912406 3.029227e+02
481.000479209138859 3.029354e+02
482.001295910090278 3.029455e+02
483.001704139410492 3.029550e+02
484.00178408342299 3.029661e+02
485.001664822552584 3.029782e+02
486.001406635918386 3.029901e+02
487.001087007316471 3.030008e+02
488.000850381713917 3.030103e+02
489.000813344166488 3.030179e+02
490.000981795566474 3.030252e+02
491.00125832246249 3.030340e+02
492.001684217808304 3.030436e+02
492.99939413848648 3.030533e+02
494.000719238769705 3.030621e+02
494.999660839723674 3.030699e+02
495.999293729543808 3.030768e+02
496.999453356528591 3.030846e+02
497.999887946345211 3.030934e+02
499.000442029133922 3.031025e+02
500.001111835344943 3.031111e+02
501.002019601352572 3.031182e+02
502.000236568689388 3.031242e+02
503.002039400038257 3.031323e+02
504.0012787918306 3.031402e+02
505.001007414161222 3.031452e+02
506.001186752185674 3.031470e+02
507.001709368306422 3.031473e+02
507.999371288790201 3.031469e+02
509.000251781738996 3.031463e+02
510.001183589321784 3.031466e+02
511.002164067143099 3.031472e+02
512.000130656694409 3.031495e+02
513.001215504268885 3.031540e+02
513.999181033360628 3.031615e+02
515.000180110856263 3.031730e+02
516.001133014596462 3.031887e+02
517.002031612560131 3.032068e+02
517.999751928516162 3.032265e+02
519.000446535678634 3.032477e+02
520.001009309554775 3.032700e+02
521.001366067921367 3.032940e+02
522.001367871790421 3.033203e+02
523.000958416949402 3.033482e+02
523.999884850454464 3.033768e+02
525.000863078397288 3.034056e+02
526.000730387074327 3.034355e+02
526.999447329576697 3.034638e+02
527.999970309836385 3.034919e+02
528.99918668330281 3.035208e+02
530.000148515173805 3.035492e+02
530.999840949936242 3.035766e+02
532.001438770098389 3.036048e+02
533.002105702725999 3.036332e+02
534.002128614176513 3.036625e+02
535.001675572193221 3.036900e+02
536.00079731984556 3.037166e+02
536.999417545581878 3.037418e+02
538.000507994268219 3.037646e+02
539.001045920197612 3.037852e+02
540.001107217858362 3.037997e+02
541.000793522413232 3.038074e+02
542.00036395165921 3.038090e+02
543.000056709638443 3.038051e+02
543.999965601871168 3.037976e+02
545.000067956279395 3.037878e+02
546.000298926345408 3.037755e+02
547.000615497026843 3.037604e+02
548.001060929089135 3.037436e+02
549.0016914245723 3.037270e+02
549.99942313618601 3.037113e+02
551.000339615319149 3.036971e+02
552.001564518718737 3.036846e+02
553.000333763680032 3.036737e+02
553.999953309227521 3.036642e+02
555.000500307863376 3.036564e+02
556.001853977236806 3.036512e+02
557.000742435261373 3.036486e+02
558.000057234439168 3.036485e+02
558.999698243294233 3.036499e+02
559.999593029056996 3.036524e+02
560.99969689862553 3.036571e+02
561.99998784127024 3.036650e+02
563.000428298000998 3.036772e+02
564.000935833766334 3.036924e+02
565.001314925658789 3.037105e+02
566.001418003635649 3.037300e+02
567.001209790490293 3.037502e+02
568.00068689245677 3.037706e+02
568.999859324308204 3.037909e+02
570.001766381477182 3.038099e+02
571.000411212337326 3.038269e+02
572.002070603366519 3.038413e+02
573.000711331323714 3.038526e+02
573.999307423024675 3.038612e+02
575.000728360617927 3.038666e+02
576.001726066406832 3.038688e+02
577.002114498358651 3.038700e+02
578.001691270227298 3.038709e+02
579.000250033733209 3.038712e+02
580.000886306321149 3.038722e+02
581.000895918832953 3.038719e+02
582.00066889190964 3.038697e+02
583.000556948397843 3.038653e+02
584.000894905743849 3.038600e+02
585.001793707317006 3.038567e+02
586.00022477092125 3.038552e+02
586.999263799181108 3.038564e+02
588.002109183619609 3.038617e+02
589.000030943304182 3.038707e+02
589.999587108224659 3.038818e+02
591.001140016381328 3.038930e+02
592.001698272853673 3.039042e+02
593.001057265885606 3.039157e+02
594.001939881682006 3.039274e+02
595.001024080226216 3.039346e+02
596.001273861919799 3.039364e+02
596.999480325205809 3.039328e+02
598.001604292596426 3.039292e+02
599.001215452755446 3.039265e+02
600.001199900228812 3.039260e+02
601.001344681704381 3.039236e+02
602.001702733897105 3.039187e+02
602.99941363408459 3.039117e+02
604.000728454961632 3.039034e+02
604.99933007184859 3.038967e+02
606.001174877580752 3.038924e+02
606.999792466388385 3.038885e+02
608.001203869894994 3.038833e+02
609.002070819266237 3.038778e+02
609.999266336824917 3.038751e+02
610.999757468849339 3.038763e+02
612.00139002093556 3.038781e+02
613.001600806116585 3.038792e+02
614.000189069724684 3.038815e+02
