#   Area   : 2.13000e-01
#   Time   areaAverage(T)
0.999427 3.001476e+02
2.00049 3.001485e+02
3.00031 3.001482e+02
3.99974 3.001474e+02
4.999837 3.001458e+02
6.00101 3.001436e+02
7.000448 3.001406e+02
8.000372 3.001364e+02
9.000012 3.001305e+02
10.0011397 3.001212e+02
11.0005125 3.001048e+02
12.0006256 3.000830e+02
13.0011117 3.000633e+02
13.9997545 3.000497e+02
14.999678163 3.000435e+02
15.999607758 3.000420e+02
17.001423079 3.000426e+02
18.000125537 3.000436e+02
19.000241824 3.000451e+02
20.0017637999 3.000491e+02
20.9996095701 3.000556e+02
22.0019702438 3.000629e+02
22.999320956 3.000693e+02
24.0004117324 3.000746e+02
25.001912685444 3.000788e+02
26.000815381156 3.000819e+02
27.000616308207 3.000839e+02
28.001753186764 3.000846e+02
29.00103025218 3.000840e+02
30.00096884102414 3.000823e+02
31.0010466924629 3.000799e+02
32.00076191534071 3.000777e+02
32.99994752892779 3.000769e+02
34.00185910390489 3.000787e+02
35.00094148549404 3.000848e+02
36.0007323908276 3.000954e+02
37.00168518983952 3.001094e+02
38.00099208641546 3.001261e+02
39.00157851096972 3.001445e+02
39.9996303786337393 3.001630e+02
41.0004953412502999 3.001807e+02
42.0009070206368165 3.001968e+02
43.0008319248529602 3.002112e+02
44.0005488391913389 3.002243e+02
45.0006530563491651 3.002362e+02
46.0017181984809156 3.002472e+02
47.0009495583614481 3.002579e+02
48.0018396077909131 3.002687e+02
49.0015515004562801 3.002799e+02
49.9999329171132274 3.002918e+02
50.9997297372635359 3.003045e+02
52.0007723885163031 3.003184e+02
52.9999861900431952 3.003333e+02
54.0004187036915866 3.003493e+02
55.0020986480979488 3.003660e+02
56.0018978015979485 3.003832e+02
56.9997709032349675 3.004005e+02
58.0017761736346387 3.004178e+02
59.0015984460411929 3.004346e+02
60.0021521568440548 3.004510e+02
61.000098740020384 3.004669e+02
62.0012673557279967 3.004825e+02
63.0022013247344859 3.004978e+02
63.9994497110408744 3.005128e+02
65.002054107660129 3.005276e+02
66.0007129160335353 3.005423e+02
67.001732642028287 3.005570e+02
68.0022184161371825 3.005719e+02
69.0023282304698569 3.005869e+02
70.0020967323733316 3.006023e+02
71.0014626894989078 3.006180e+02
72.000347206961905 3.006339e+02
73.001814536130297 3.006501e+02
73.999803696464312 3.006663e+02
75.0005142580166506 3.006827e+02
76.0009472599216451 3.006992e+02
77.0010967364421219 3.007159e+02
78.0008778649198149 3.007328e+02
79.0002325173825 3.007499e+02
80.0023181581406391 3.007597e+02
81.0010950209574219 3.007166e+02
81.9997182112844456 3.006601e+02
83.0013300977933284 3.005986e+02
83.9999391470229 3.005347e+02
85.0018435010252347 3.004688e+02
86.0008606208824204 3.004016e+02
86.9999880338603901 3.003329e+02
88.0020037995171407 3.002628e+02
89.0004046785960838 3.001918e+02
90.0010837849391692 3.001199e+02
91.0008285090756743 3.000474e+02
91.9994646174541089 2.999744e+02
93.0000853875089604 2.999006e+02
93.9995910128285601 2.998265e+02
95.0012163098537314 2.997518e+02
96.0020133773239053 2.996767e+02
97.0020574698554583 2.996011e+02
98.0014642115947225 2.995249e+02
99.0003686226269366 2.994483e+02
100.001947089189784 2.993710e+02
101.000271179902313 2.992936e+02
102.001523406674536 2.992155e+02
102.99969570444479 2.991370e+02
104.000908865614974 2.990576e+02
105.002152263136153 2.989774e+02
106.000378067992287 2.988968e+02
107.00163414543087 2.988152e+02
107.999820550515125 2.987332e+02
109.000984406227602 2.986502e+02
110.002068239247023 2.985668e+02
111.00001858391191 2.984830e+02
112.000888836224746 2.983985e+02
113.001617997014293 2.983134e+02
114.002209263695818 2.982279e+02
114.99960718464024 2.981420e+02
115.999872131530168 2.980555e+02
116.999973228238687 2.979685e+02
117.999915759184802 2.978810e+02
118.999696297663988 2.977931e+02
120.002346978990104 2.977045e+02
121.001802203412097 2.976158e+02
122.001089430002338 2.975263e+02
123.000195781257958 2.974363e+02
124.002145808338966 2.973454e+02
125.00086390218344 2.972545e+02
126.002399932855283 2.971621e+02
127.000675423971757 2.970696e+02
128.001718892295969 2.969766e+02
129.002474220212093 2.968841e+02
129.999899023642627 2.967917e+02
131.000022883252541 2.966985e+02
131.99980357745423 2.966058e+02
133.002201975843775 2.965132e+02
134.00121011720671 2.964216e+02
134.999895059076891 2.963306e+02
136.001354881184824 2.962397e+02
136.999671981025131 2.961492e+02
138.001014733980639 2.960577e+02
138.999511912610359 2.959659e+02
140.001372693757475 2.958745e+02
141.000721369328062 2.957844e+02
142.000678826319387 2.956945e+02
143.001410269753791 2.956044e+02
144.000025124920398 2.955138e+02
144.999619595327431 2.954222e+02
146.0002268439452 2.953298e+02
147.001934284146188 2.952364e+02
148.00171385002426 2.951427e+02
148.999570758778503 2.950484e+02
150.001460268790225 2.949529e+02
151.001471625160036 2.948568e+02
151.999643271126928 2.947606e+02
153.002234693194737 2.946630e+02
154.000017083123623 2.945660e+02
155.002075368657557 2.944677e+02
156.002171319720389 2.943700e+02
157.000201221534894 2.942720e+02
158.002214270236891 2.941729e+02
159.002025935581884 2.940728e+02
159.999611888222489 2.939719e+02
161.001110797304506 2.938701e+02
162.000431518502523 2.937684e+02
163.000598996626394 2.936669e+02
164.001657526757469 2.935663e+02
165.000611927010681 2.934676e+02
166.000636570257399 2.933708e+02
167.001966936224989 2.932762e+02
168.001524024576383 2.931840e+02
168.999535062912372 2.930938e+02
170.002373244580212 2.929998e+02
171.000526233348893 2.928987e+02
171.999938935686771 2.927884e+02
173.000419891909644 2.926719e+02
174.001722928412619 2.925524e+02
175.000512625435874 2.924344e+02
175.999767070886492 2.923217e+02
176.99954079770464 2.922182e+02
178.000007481480537 2.921233e+02
179.001172133937928 2.920352e+02
179.999682450687942 2.919496e+02
181.001635694069051 2.918620e+02
182.000592152761328 2.917696e+02
182.999519896950915 2.916728e+02
184.00124781430452 2.915734e+02
185.002486385811778 2.914758e+02
186.000255045406107 2.913808e+02
187.001127013245792 2.912831e+02
188.002072581649884 2.911816e+02
188.999892205631966 2.910797e+02
190.000705973510435 2.909807e+02
191.001383975613464 2.908855e+02
192.002166445431158 2.907921e+02
193.000098668779714 2.906993e+02
194.001181195154828 2.906105e+02
195.001620137572985 2.905306e+02
196.001178650808271 2.904597e+02
197.000350796765275 2.903934e+02
197.999660542726929 2.903266e+02
199.002335025356558 2.902544e+02
200.001935586922144 2.901763e+02
201.001414943333913 2.900946e+02
202.000868928127431 2.900124e+02
202.999997842964206 2.899315e+02
204.0016310147914 2.898504e+02
205.002166413694084 2.897684e+02
206.001116309208413 2.896834e+02
207.001381956321211 2.895959e+02
207.9998943985035 2.895081e+02
208.999583940723255 2.894210e+02
209.99984336437123 2.893353e+02
211.000998253438354 2.892504e+02
212.000320780333084 2.891659e+02
213.000148791994746 2.890790e+02
214.000519730077229 2.890145e+02
215.000147433256899 2.889837e+02
216.001291672560797 2.889585e+02
217.001249723514121 2.889335e+02
218.002346265045077 2.889060e+02
219.001117517151101 2.888805e+02
220.000179332863723 2.888565e+02
221.001984233296611 2.888328e+02
222.000019298464537 2.888090e+02
223.000472483728515 2.887851e+02
224.000035929419795 2.887629e+02
225.001538814148404 2.887402e+02
226.002232348217717 2.887158e+02
227.002169872115275 2.886910e+02
228.000958699243625 2.886662e+02
229.001727466383443 2.886413e+02
230.001349947985972 2.886159e+02
230.99980440953388 2.885922e+02
232.000658677140137 2.885716e+02
233.000406829737074 2.885545e+02
234.001889288894915 2.885410e+02
234.999987857891028 2.885304e+02
236.000824748772231 2.885225e+02
237.00126402941325 2.885154e+02
238.001397825822721 2.885090e+02
239.001659752754847 2.885034e+02
240.002266841204374 2.884982e+02
241.000261468869382 2.884925e+02
242.001944879210811 2.884856e+02
243.001454555426477 2.884773e+02
244.001972006663124 2.884676e+02
245.000650011113038 2.884571e+02
246.000794019596583 2.884462e+02
246.999515043074808 2.884353e+02
247.999991685574656 2.884236e+02
249.002356430929581 2.884122e+02
250.000565355472645 2.883955e+02
251.000732934448166 2.883756e+02
251.999708502626078 2.883532e+02
253.000512989818787 2.883284e+02
253.999885102590099 2.883021e+02
255.001070266916685 2.882736e+02
256.000839560378154 2.882432e+02
257.002428650690433 2.882101e+02
257.999811689606702 2.881755e+02
259.001750639557088 2.881393e+02
260.001118134239789 2.881023e+02
261.0003499609453 2.880662e+02
262.002242301688852 2.880336e+02
263.00038849849949 2.880077e+02
264.000905347231651 2.879913e+02
265.000507148832071 2.879860e+02
266.001962269527269 2.879931e+02
267.001916114889923 2.880098e+02
268.000509559255079 2.880350e+02
269.000928206782703 2.880592e+02
270.000007865947964 2.880789e+02
271.000424375674072 2.880905e+02
272.001918020223684 2.880942e+02
273.001711716248963 2.880912e+02
274.000259563707004 2.880840e+02
275.001150352234959 2.880752e+02
276.001368364580856 2.880662e+02
277.000464361424179 2.880566e+02
278.001159856900301 2.880474e+02
279.000440219970642 2.880412e+02
280.001416704900123 2.880415e+02
281.001363233582481 2.880493e+02
282.000450491904587 2.880617e+02
283.001441506528238 2.880746e+02
284.000898257364383 2.880840e+02
285.001884224806759 2.880888e+02
286.001695158509449 2.880869e+02
287.00083686584918 2.880770e+02
287.999779922023777 2.880592e+02
289.00217000750348 2.880348e+02
289.999818932370886 2.880067e+02
291.002390998074702 2.879766e+02
292.000324383956922 2.879482e+02
293.002281315476978 2.879223e+02
294.001828078367453 2.878983e+02
295.001611671774583 2.878771e+02
296.001314901285866 2.878598e+02
297.00088689875497 2.878487e+02
298.00038530568753 2.878426e+02
298.99979428595401 2.878375e+02
300.002174996140184 2.878295e+02
301.001629792814299 2.878168e+02
302.001459111373606 2.878007e+02
303.001930965865313 2.877830e+02
304.000231942945902 2.877648e+02
304.999558167453529 2.877467e+02
305.999740373459133 2.877287e+02
307.00049372421114 2.877109e+02
308.001623502406176 2.876938e+02
308.999886381099657 2.876785e+02
310.001413061204403 2.876657e+02
311.000237423209796 2.876566e+02
311.999647676510733 2.876513e+02
312.999797447474521 2.876493e+02
314.00077313436168 2.876490e+02
314.999478399374595 2.876483e+02
316.001990115735566 2.876458e+02
317.001905398249903 2.876388e+02
318.002171419029537 2.876293e+02
318.999812552419371 2.876186e+02
320.001245077814531 2.876058e+02
321.00032755763084 2.875911e+02
321.999810468384169 2.875756e+02
322.99953236046241 2.875612e+02
324.002261250268589 2.875469e+02
325.00131355461167 2.875327e+02
325.999607697640556 2.875187e+02
327.000043180232751 2.875055e+02
328.002412231241237 2.874942e+02
329.000458313912361 2.874873e+02
330.000575270518993 2.874884e+02
330.99988426793476 2.874973e+02
332.001383612835525 2.875098e+02
333.002008264080985 2.875199e+02
334.00191188491641 2.875228e+02
335.00115025317632 2.875149e+02
335.999693180028885 2.874988e+02
337.000793258894248 2.874792e+02
338.001952926178944 2.874612e+02
339.000304708887768 2.874455e+02
340.002014322204161 2.874316e+02
341.001025424621218 2.874200e+02
342.00024299366703 2.874116e+02
342.999464099637976 2.874056e+02
344.001543545480956 2.873998e+02
345.000291069840671 2.873931e+02
346.001795610644365 2.873839e+02
346.999927843140654 2.873715e+02
348.000987026071982 2.873562e+02
349.002165312943305 2.873401e+02
350.000459537454105 2.873242e+02
351.001932414771431 2.873088e+02
352.000442991369937 2.872935e+02
353.002185159184023 2.872789e+02
354.000931348699794 2.872647e+02
354.999606586708012 2.872510e+02
356.001242268716737 2.872387e+02
356.99973038914743 2.872286e+02
358.001176667245943 2.872208e+02
358.99945403706937 2.872144e+02
360.000768690903158 2.872089e+02
361.002189686773875 2.872044e+02
362.000773394692033 2.872006e+02
362.999684936947801 2.871968e+02
364.002107137089581 2.871927e+02
365.002007967804445 2.871881e+02
365.999470042928806 2.871824e+02
367.000687280871944 2.871747e+02
367.999530951051156 2.871646e+02
369.002067429825445 2.871523e+02
370.001889301599874 2.871377e+02
371.001790006237911 2.871214e+02
372.001657672861313 2.871052e+02
373.001395802476452 2.870897e+02
374.000962132299151 2.870752e+02
375.000382853457552 2.870633e+02
375.999792565119492 2.870551e+02
377.002436551305266 2.870513e+02
378.002318536379676 2.870511e+02
378.999502150836918 2.870531e+02
380.000040843411853 2.870514e+02
381.000627384820518 2.870481e+02
382.001002752364514 2.870404e+02
383.00115669650495 2.870306e+02
384.001362274559426 2.870211e+02
385.001836803982656 2.870114e+02
385.999673120352725 2.870009e+02
387.001085723101198 2.869899e+02
387.999674785773095 2.869793e+02
389.001503394841222 2.869691e+02
390.000277953550949 2.869592e+02
391.001992424886225 2.869471e+02
392.000294823884644 2.869349e+02
393.001073367511026 2.869212e+02
394.001031081924282 2.869053e+02
395.000083225457615 2.868896e+02
396.001391167296504 2.868774e+02
397.002142969087799 2.868714e+02
398.002486927678831 2.868723e+02
399.002454552175777 2.868773e+02
400.001999540525617 2.868811e+02
401.000839329190683 2.868768e+02
402.001818410464637 2.868669e+02
403.001560964542819 2.868528e+02
403.999786884809168 2.868377e+02
404.999724608758868 2.868246e+02
406.002155654581145 2.868134e+02
407.001519020125158 2.868039e+02
408.001202559612636 2.867968e+02
409.001369975461614 2.867921e+02
410.002043393628696 2.867882e+02
410.999972389979689 2.867837e+02
412.001170458417903 2.867777e+02
412.999627710769573 2.867702e+02
414.001692730684454 2.867615e+02
415.001429484919584 2.867514e+02
416.001825319840179 2.867396e+02
416.999635767361269 2.867256e+02
418.000859963892083 2.867097e+02
419.002365467976858 2.866937e+02
420.001016045350354 2.866787e+02
420.999914896541213 2.866649e+02
422.002133010558055 2.866525e+02
423.001501058126678 2.866418e+02
424.001069151508716 2.866336e+02
425.000824954660288 2.866281e+02
426.000668953435365 2.866243e+02
427.000478133099705 2.866218e+02
428.000310505721586 2.866187e+02
429.000300211275032 2.866132e+02
430.00050079737332 2.866056e+02
431.000971266033559 2.865971e+02
432.001782535379562 2.865886e+02
432.999925628943629 2.865800e+02
434.001561009992656 2.865709e+02
435.000563914871123 2.865613e+02
435.999970321399474 2.865509e+02
436.999630166304769 2.865395e+02
438.002466683619161 2.865265e+02
439.002192183795387 2.865115e+02
440.001688224110467 2.864947e+02
441.000709643122434 2.864778e+02
442.002232338345664 2.864628e+02
443.000112582989857 2.864515e+02
444.000667855841584 2.864452e+02
445.001001007242792 2.864438e+02
446.001186836704903 2.864456e+02
447.001232704298559 2.864468e+02
448.000910513210442 2.864441e+02
449.000011552115325 2.864373e+02
450.00110361713098 2.864271e+02
451.000822641461355 2.864144e+02
452.002366066913225 2.864011e+02
453.000011650833812 2.863882e+02
454.000108872903866 2.863766e+02
455.000233422348913 2.863675e+02
456.000785399313656 2.863604e+02
457.001850476985567 2.863548e+02
458.000289331378383 2.863498e+02
459.002052251780583 2.863444e+02
460.001104160380521 2.863383e+02
461.000605394844229 2.863307e+02
462.000647284535148 2.863198e+02
463.001173175470285 2.863055e+02
464.00204395615998 2.862901e+02
465.000109990166891 2.862750e+02
466.001419342150768 2.862609e+02
466.999665365169903 2.862474e+02
468.000946758895623 2.862346e+02
469.00234917832978 2.862233e+02
470.000864960320541 2.862138e+02
471.002477313541476 2.862053e+02
472.000846115626814 2.861976e+02
473.001921648078792 2.861910e+02
473.999450733767674 2.861859e+02
475.002485419731613 2.861804e+02
476.001736261685664 2.861727e+02
477.000260252070859 2.861632e+02
478.001290283438777 2.861537e+02
479.002008661757372 2.861451e+02
479.999562910336579 2.861372e+02
481.000322084070604 2.861301e+02
482.001520182046136 2.861234e+02
483.000129708258498 2.861169e+02
484.002359095712279 2.861099e+02
485.002231876276539 2.861012e+02
485.999765812743988 2.860897e+02
487.000864815357943 2.860757e+02
488.002170062228913 2.860606e+02
489.00045954244689 2.860456e+02
490.001794625150296 2.860311e+02
491.000023860958038 2.860186e+02
492.001336155991623 2.860085e+02
492.999710818571032 2.860005e+02
494.001329079959532 2.859939e+02
494.999968105950188 2.859883e+02
496.001562342131649 2.859824e+02
496.999754554658693 2.859714e+02
498.000257974445901 2.859599e+02
498.999633121729119 2.859493e+02
500.000600046659713 2.859389e+02
501.000301677009986 2.859286e+02
502.002412948044253 2.859184e+02
503.001270200884846 2.859092e+02
504.000282790935785 2.859011e+02
504.999706850163989 2.858941e+02
505.999664625479113 2.858880e+02
507.000112705771187 2.858828e+02
508.001079532326344 2.858775e+02
508.999694129455179 2.858711e+02
510.002150127088953 2.858617e+02
511.002218394323165 2.858492e+02
511.999617029439776 2.858344e+02
513.000336886104947 2.858191e+02
514.001282186812773 2.858049e+02
515.002424232829867 2.857921e+02
516.000697486192735 2.857808e+02
517.002277367944544 2.857707e+02
518.001087041363917 2.857615e+02
519.000070186908943 2.857527e+02
520.002061922669782 2.857422e+02
521.000512523646989 2.857287e+02
522.001053482481552 2.857164e+02
523.00007566929969 2.857070e+02
524.00040467210556 2.856997e+02
525.002202554868177 2.856927e+02
525.999694312942552 2.856844e+02
526.999458637387761 2.856761e+02
528.002023008216497 2.856690e+02
529.001696489106394 2.856619e+02
530.001685071507382 2.856545e+02
531.002105257858034 2.856476e+02
532.000102648962866 2.856420e+02
533.002010846639109 2.856365e+02
534.001793663617718 2.856289e+02
535.00238793895619 2.856187e+02
536.000543394840406 2.856061e+02
537.00221616204044 2.855926e+02
538.001316173628652 2.855798e+02
539.000898988117228 2.855676e+02
540.000958099782565 2.855557e+02
541.001466161834855 2.855442e+02
542.002421923823476 2.855323e+02
543.000713570675316 2.855202e+02
544.002193041538362 2.855078e+02
545.000406429081409 2.854912e+02
546.00095340545306 2.854750e+02
547.00021874262427 2.854620e+02
548.000745048939393 2.854527e+02
549.002445044088745 2.854463e+02
549.999562917941262 2.854402e+02
551.001704629471192 2.854333e+02
552.000285762018734 2.854271e+02
553.001876807178064 2.854203e+02
554.000655055405559 2.854130e+02
554.999829365842629 2.854060e+02
555.999567795011444 2.854000e+02
557.000175434605808 2.853945e+02
558.001793394211631 2.853877e+02
559.00131092580159 2.853789e+02
560.001546083334915 2.853678e+02
561.002386530925833 2.853557e+02
562.000729949413312 2.853436e+02
562.999653645662534 2.853326e+02
564.00229373021466 2.853219e+02
564.999475585275604 2.853110e+02
566.000311189876584 2.852991e+02
567.001666591151775 2.852860e+02
568.000307677030833 2.852704e+02
569.001989843350998 2.852511e+02
570.000023661687237 2.852317e+02
570.999700393102785 2.852151e+02
572.000439015618099 2.852040e+02
573.002230577215073 2.851970e+02
574.002266792418823 2.851916e+02
575.000829058087334 2.851861e+02
576.001393769855326 2.851802e+02
577.001472104321579 2.851741e+02
578.001635884421603 2.851670e+02
579.002225501488283 2.851598e+02
580.000387462350659 2.851533e+02
581.002380412888328 2.851472e+02
582.002327348264998 2.851407e+02
583.000205700019592 2.851326e+02
584.001947425262415 2.851229e+02
585.001403597161357 2.851130e+02
586.001610182698755 2.851031e+02
586.999474569159929 2.850942e+02
588.001157742226951 2.850854e+02
589.000631909316667 2.850756e+02
590.000920806390923 2.850634e+02
591.001864889442004 2.850482e+02
592.000226401013947 2.850298e+02
593.001883186344003 2.850070e+02
594.000098638576901 2.849834e+02
595.000086811843175 2.849637e+02
596.001196695657427 2.849501e+02
597.000336537858743 2.849415e+02
598.000764526629723 2.849357e+02
598.999522899176213 2.849312e+02
599.99982476013588 2.849270e+02
601.002285755532398 2.849223e+02
602.001591538951516 2.849175e+02
603.001281703943391 2.849116e+02
604.001616661409116 2.849053e+02
604.999745050567526 2.848984e+02
606.001895755989949 2.848916e+02
607.001981525184647 2.848836e+02
607.999884555359131 2.848749e+02
609.001675652836298 2.848660e+02
610.001269377164135 2.848579e+02
611.001645590090448 2.848668e+02
611.999754677846681 2.849039e+02
613.001761147372122 2.849456e+02
614.001546520031638 2.849871e+02
