#   Area   : 2.13000e-01
#   Time   areaAverage(T)
0.999427 2.971476e+02
2.00049 2.971485e+02
3.00031 2.971483e+02
3.99974 2.971479e+02
4.999852 2.971468e+02
6.001051 2.971451e+02
7.000531 2.971428e+02
8.000508 2.971395e+02
9.000207 2.971351e+02
10.0013794 2.971281e+02
11.0007486 2.971156e+02
12.0009612 2.970983e+02
13.0012826 2.970817e+02
14.0004431 2.970691e+02
15.000919704 2.970617e+02
16.001134102 2.970588e+02
17.000964066 2.970585e+02
18.001437332 2.970595e+02
19.000199323 2.970615e+02
20.00002609566 2.970662e+02
21.0005538983 2.970737e+02
22.0001516083 2.970822e+02
23.00171546342 2.970901e+02
24.00158629973 2.970970e+02
24.9992923468791 2.971028e+02
26.0007408332901 2.971076e+02
27.000127321636 2.971111e+02
28.0005920788103 2.971133e+02
29.0017240917936 2.971144e+02
29.9997920938323759 2.971145e+02
31.0002175478398492 2.971139e+02
31.9996891168724211 2.971133e+02
33.0014876982192291 2.971133e+02
34.0001772822966544 2.971146e+02
34.9994365335516946 2.971179e+02
35.9997900444985959 2.971238e+02
37.0015242626866723 2.971330e+02
38.0015591189283697 2.971454e+02
38.9994632840672892 2.971592e+02
40.0007574456951929 2.971734e+02
41.0021224612753414 2.971872e+02
42.0002872525634814 2.972003e+02
43.0012566304121364 2.972129e+02
44.0020467575723373 2.972250e+02
44.9999474219365112 2.972368e+02
46.0013565934288735 2.972489e+02
47.0003167083469933 2.972615e+02
47.9999449913441012 2.972748e+02
49.0004299422109781 2.972889e+02
50.0018024649949737 2.973036e+02
51.0009823404558276 2.973186e+02
52.0009844877071998 2.973339e+02
53.0017643910810605 2.973495e+02
54.0002351206742404 2.973653e+02
54.9993848868174098 2.973813e+02
56.0021814734975152 2.973974e+02
56.9993512698789999 2.974134e+02
57.9999264458105159 2.974293e+02
59.0007923745438418 2.974452e+02
60.0019425234990109 2.974611e+02
61.0003528657921592 2.974769e+02
61.9992021823811967 2.974926e+02
63.0016965212632414 2.975084e+02
64.0018160389436872 2.975243e+02
64.9996150087740006 2.975402e+02
66.0012484215040303 2.975566e+02
67.0005232908566057 2.975731e+02
68.0003944877985589 2.975899e+02
69.0007533914107256 2.976070e+02
70.0015603219173812 2.976241e+02
70.9997684691784627 2.976413e+02
72.0016025253438841 2.976585e+02
73.0009653857906784 2.976755e+02
74.0009923556114444 2.976926e+02
75.0017195732837507 2.977095e+02
75.9999581087556066 2.977264e+02
77.0017104911463264 2.977433e+02
78.0005896543658253 2.977600e+02
78.9993985451516778 2.977768e+02
80.0010209520131355 2.977809e+02
80.9991269425436258 2.977742e+02
81.99974614684497 2.977635e+02
82.9997173174550653 2.977503e+02
84.0020941085013391 2.977355e+02
85.0006823668008735 2.977194e+02
86.0016281094392525 2.977022e+02
87.001834392442106 2.976841e+02
88.0012234801301929 2.976654e+02
88.9998675660702361 2.976461e+02
90.0008787025826535 2.976262e+02
91.0012554686999948 2.976059e+02
92.0011025357617598 2.975853e+02
93.000402258883355 2.975645e+02
93.999363258351579 2.975435e+02
95.0011600540610175 2.975219e+02
95.9997851463064222 2.975000e+02
97.0014259130476262 2.974774e+02
97.999941160804994 2.974544e+02
99.0014269928212656 2.974309e+02
99.9997536230513759 2.974066e+02
101.001031993007544 2.973814e+02
102.002273183616225 2.973551e+02
103.00030896487965 2.973280e+02
104.001240166939084 2.972998e+02
105.001994492542238 2.972706e+02
106.002493253645454 2.972407e+02
106.999679236622228 2.972103e+02
108.00266338555538 2.971793e+02
109.002112539327754 2.971479e+02
110.001000540579781 2.971164e+02
111.002408319914792 2.970840e+02
112.000128955767693 2.970515e+02
113.000219367322458 2.970184e+02
114.00252857400389 2.969848e+02
115.000960042107437 2.969505e+02
116.001504451501489 2.969157e+02
117.001088593146392 2.968803e+02
118.002638565734458 2.968441e+02
118.999993107898078 2.968075e+02
120.002185069780396 2.967705e+02
121.000078758953904 2.967331e+02
122.002653422413488 2.966949e+02
123.000754340607472 2.966563e+02
124.000249782474413 2.966177e+02
125.001208079555653 2.965785e+02
126.000763042848732 2.965388e+02
127.002101925546427 2.964987e+02
128.002452714997276 2.964571e+02
129.002099405373343 2.964149e+02
130.001295117298724 2.963728e+02
131.000335333749604 2.963305e+02
132.002542878069534 2.962871e+02
133.002328883822429 2.962436e+02
134.000075407824681 2.961998e+02
135.002080006486324 2.961558e+02
136.002658325402734 2.961115e+02
137.002219736449121 2.960674e+02
138.001156890232608 2.960239e+02
139.002494820356389 2.959805e+02
139.999771603676663 2.959379e+02
141.002127671732893 2.958951e+02
142.000326828377013 2.958524e+02
143.000354093607029 2.958096e+02
144.002607726763785 2.957660e+02
145.0007989384643 2.957217e+02
146.001058924252675 2.956773e+02
147.000383868891788 2.956332e+02
148.001677150526746 2.955896e+02
149.001583692929302 2.955454e+02
149.999803572063087 2.955022e+02
151.002157085829225 2.954584e+02
152.002368954412987 2.954151e+02
153.000419600010275 2.953720e+02
154.002498633515074 2.953293e+02
155.002367165596809 2.952868e+02
155.999961652498769 2.952454e+02
157.001484117626262 2.952046e+02
158.000771297344329 2.951649e+02
159.001061283777062 2.951258e+02
160.002464068186157 2.950883e+02
161.001787296918621 2.950520e+02
162.001967396205629 2.950169e+02
162.99987013600321 2.949817e+02
164.00169494871875 2.949458e+02
165.001225376364033 2.949074e+02
166.001529530404497 2.948663e+02
167.002578845905987 2.948249e+02
168.001176238471515 2.947860e+02
169.000257904581105 2.947501e+02
170.002691244404929 2.947159e+02
171.001931665802317 2.946810e+02
172.000683988546285 2.946438e+02
173.001764767570933 2.946035e+02
174.001790581428764 2.945619e+02
175.000677962106806 2.945220e+02
176.001649220067776 2.944860e+02
177.001949240672559 2.944537e+02
178.002122222696244 2.944223e+02
179.002687168357028 2.943899e+02
180.000851221809285 2.943532e+02
180.999717822446172 2.943120e+02
182.002107335839327 2.942678e+02
183.001541721738874 2.942229e+02
184.00118027588951 2.941788e+02
185.001003280914091 2.941361e+02
186.000682123100347 2.940952e+02
187.002663329054656 2.940564e+02
188.000129186769328 2.940211e+02
189.002449520229902 2.939890e+02
190.000940841888308 2.939601e+02
191.002657389520721 2.939332e+02
192.00193207052601 2.939075e+02
193.002067741240126 2.938833e+02
194.000021655254614 2.938598e+02
195.002180064267947 2.938340e+02
196.002286473872317 2.938038e+02
197.000051748967081 2.937705e+02
198.001304877255649 2.937362e+02
199.002178816809533 2.937028e+02
200.002215502925168 2.936696e+02
201.001498532132615 2.936348e+02
201.999694163551595 2.935971e+02
203.001846437787179 2.935587e+02
204.000260420414349 2.935223e+02
205.00076131728639 2.934862e+02
206.002090419317909 2.934511e+02
207.000933874151769 2.934150e+02
208.002051103417983 2.933782e+02
208.999656559112651 2.933416e+02
210.002554894086018 2.933061e+02
211.002667236961031 2.932721e+02
212.001596726417318 2.932393e+02
213.001608092022508 2.932097e+02
214.002622446640459 2.931942e+02
215.001874005837209 2.931843e+02
215.999728612705354 2.931762e+02
216.999660290062565 2.931673e+02
218.001954924164266 2.931564e+02
219.000511816629086 2.931436e+02
220.001826431655815 2.931275e+02
221.000639544984523 2.931040e+02
222.002502294171933 2.930800e+02
223.000913212408875 2.930549e+02
224.002046212566881 2.930282e+02
225.003156607808734 2.930011e+02
226.001390350997411 2.929742e+02
227.002497212841774 2.929487e+02
228.002739898910363 2.929285e+02
229.001536327455568 2.929136e+02
230.001647404054182 2.929006e+02
231.00330061146002 2.928908e+02
232.000523516120211 2.928821e+02
233.002842430776326 2.928749e+02
234.001494645122733 2.928691e+02
235.002785069853047 2.928645e+02
236.000926294089766 2.928608e+02
237.002404068492893 2.928578e+02
238.00113538662697 2.928515e+02
239.003268786141433 2.928431e+02
240.002837271213338 2.928334e+02
241.002924640601435 2.928228e+02
242.000538849728684 2.928115e+02
243.001804112537513 2.927988e+02
244.000640700406763 2.927846e+02
245.003319865708534 2.927688e+02
246.000707285940621 2.927510e+02
247.002007858199192 2.927320e+02
248.001056509176266 2.927124e+02
249.000979686864213 2.926921e+02
250.001763504070198 2.926716e+02
251.003303069669386 2.926518e+02
252.002504112295213 2.926337e+02
253.002425917797012 2.926169e+02
254.00272094465015 2.926007e+02
255.000360008183009 2.925849e+02
256.001595315007876 2.925710e+02
257.003362294698888 2.925591e+02
258.00255842102257 2.925486e+02
259.002152677035099 2.925394e+02
260.001981664416917 2.925314e+02
261.001813615033029 2.925249e+02
262.00140485254326 2.925196e+02
263.000594512311977 2.925152e+02
264.002385110868943 2.925116e+02
265.000443256167102 2.925087e+02
266.00098100543147 2.925072e+02
267.000967536314135 2.925070e+02
268.003276483198704 2.925080e+02
269.001523373274665 2.925104e+02
270.001725671010206 2.925140e+02
271.000481539417819 2.925179e+02
272.000714420740564 2.925216e+02
273.00292130020199 2.925236e+02
274.000742213383489 2.925229e+02
275.003225097653171 2.925191e+02
276.002032194746505 2.925121e+02
277.000645892159866 2.925052e+02
278.001942131295436 2.924979e+02
279.002858147299435 2.924902e+02
280.000465239377263 2.924829e+02
281.00097370133733 2.924765e+02
282.001341653260511 2.924712e+02
283.001642410801367 2.924665e+02
284.002016096109742 2.924618e+02
285.002594573110798 2.924565e+02
286.000496967216804 2.924505e+02
287.002085942394046 2.924429e+02
288.001482882226242 2.924328e+02
289.001835081267131 2.924203e+02
290.003171985280858 2.924061e+02
291.002445487420459 2.923910e+02
292.00266059645827 2.923758e+02
293.000613069468443 2.923610e+02
294.002349181339184 2.923474e+02
295.00168572860008 2.923355e+02
296.001605090646819 2.923249e+02
297.002037684732386 2.923163e+02
298.002982875965245 2.923094e+02
299.001348785551954 2.923041e+02
300.003249842926266 2.922998e+02
301.002466047054213 2.922961e+02
302.00202327849081 2.922926e+02
303.001852912322136 2.922892e+02
304.001950072599357 2.922857e+02
305.002289029862141 2.922820e+02
306.002804463364726 2.922782e+02
307.000339936166938 2.922747e+02
308.00112525275722 2.922725e+02
309.002161798808231 2.922703e+02
310.000299732926749 2.922671e+02
311.001753903974702 2.922636e+02
312.003228476479023 2.922608e+02
313.001570746664754 2.922585e+02
314.002891930573128 2.922568e+02
315.001098790657693 2.922554e+02
316.002212737646175 2.922549e+02
317.002753693123339 2.922539e+02
318.002741051715759 2.922518e+02
319.002227453965133 2.922482e+02
320.000977275220748 2.922428e+02
321.001929756773393 2.922370e+02
322.002125388221941 2.922313e+02
323.001535981613699 2.922254e+02
324.003041981572039 2.922190e+02
325.000374037859729 2.922126e+02
326.002912654348165 2.922065e+02
327.001586614448399 2.922013e+02
328.002512909745406 2.921965e+02
329.002543076401537 2.921914e+02
330.001749801562255 2.921859e+02
331.003321449891018 2.921801e+02
332.001214450012128 2.921742e+02
333.001643036346195 2.921681e+02
334.001697745459865 2.921617e+02
335.001516663824475 2.921546e+02
336.001181848031365 2.921468e+02
337.000752428457247 2.921384e+02
338.000308954575644 2.921300e+02
339.002955696242054 2.921218e+02
340.002659874426115 2.921140e+02
341.002600634695796 2.921072e+02
342.002938705057034 2.921012e+02
343.00077039028929 2.920959e+02
344.002322513747629 2.920910e+02
345.001592396976321 2.920864e+02
346.001698609735854 2.920816e+02
347.002663850727458 2.920767e+02
348.001500187671638 2.920716e+02
349.001388311793335 2.920663e+02
350.002414947083139 2.920606e+02
351.001524849529289 2.920546e+02
352.001809729970944 2.920486e+02
353.003257770451626 2.920420e+02
354.002679028832802 2.920350e+02
355.002987136006652 2.920277e+02
356.000911663448676 2.920203e+02
357.002428780017908 2.920131e+02
358.001143590770198 2.920067e+02
359.003187156254512 2.920007e+02
360.002328007981532 2.919949e+02
361.001683939638156 2.919898e+02
362.001359795507994 2.919854e+02
363.001507924815201 2.919814e+02
364.002174605211678 2.919783e+02
365.003082904724977 2.919769e+02
366.000971151079284 2.919777e+02
367.002024801993684 2.919801e+02
368.003029631648076 2.919838e+02
369.000706243231605 2.919878e+02
370.000978286578629 2.919911e+02
371.000341037977933 2.919939e+02
372.001639388103968 2.919950e+02
373.001936067328529 2.919931e+02
374.001098067899704 2.919887e+02
375.001995770755968 2.919827e+02
376.001888708956301 2.919756e+02
377.000697192593861 2.919677e+02
378.000866014206679 2.919600e+02
379.002752522726666 2.919532e+02
380.000575798720831 2.919475e+02
381.003082793718704 2.919427e+02
382.001184982359462 2.919386e+02
383.001246857416106 2.919341e+02
384.000394613058518 2.919290e+02
385.001759695812154 2.919235e+02
386.00240715265619 2.919168e+02
387.002475787051594 2.919085e+02
388.002127551349872 2.918988e+02
389.001458400598608 2.918884e+02
390.000565905005942 2.918781e+02
391.002619073859478 2.918683e+02
392.001663165008722 2.918595e+02
393.000807787559211 2.918517e+02
394.003205212637624 2.918449e+02
395.002903667881753 2.918390e+02
396.003070787040201 2.918334e+02
397.000788944054477 2.918281e+02
398.002261847880902 2.918227e+02
399.00152648097702 2.918170e+02
400.00177377167654 2.918111e+02
401.003123898012916 2.918047e+02
402.002521793520543 2.917983e+02
403.003004667831249 2.917922e+02
404.001507006324118 2.917867e+02
405.001142764898987 2.917817e+02
406.001969983514186 2.917776e+02
407.000910831287001 2.917742e+02
408.001049694494611 2.917708e+02
409.002337982931579 2.917669e+02
410.00156732501398 2.917620e+02
411.001678106944439 2.917561e+02
412.002483731703308 2.917498e+02
413.000720830192734 2.917435e+02
414.002430925371357 2.917377e+02
415.001324339358689 2.917324e+02
416.000503792273548 2.917277e+02
417.003249666369186 2.917228e+02
418.003350729972851 2.917178e+02
419.000725169714599 2.917134e+02
420.001102693622329 2.917109e+02
421.001189561263857 2.917108e+02
422.000968618332536 2.917123e+02
423.000465739541255 2.917162e+02
424.002481090010178 2.917223e+02
425.000454111860961 2.917291e+02
426.000377766803297 2.917351e+02
427.002167768366064 2.917377e+02
428.002663618545625 2.917352e+02
429.001856513206576 2.917291e+02
430.002984116604978 2.917200e+02
431.003192262110645 2.917085e+02
432.002096823281761 2.916956e+02
433.002905520767285 2.916832e+02
434.002743586778649 2.916725e+02
435.001598115112131 2.916638e+02
436.002450546028285 2.916565e+02
437.002274018610649 2.916502e+02
438.00123964214913 2.916452e+02
439.002581082353231 2.916410e+02
440.00034304553094 2.916373e+02
441.000711121537847 2.916327e+02
442.000791936376515 2.916259e+02
443.000763219221597 2.916169e+02
444.000772919074109 2.916060e+02
445.000884165880336 2.915935e+02
446.001029749664042 2.915797e+02
447.001151974869288 2.915657e+02
448.001241680816236 2.915525e+02
449.001268228530193 2.915409e+02
450.001167695159324 2.915312e+02
451.000963059848289 2.915237e+02
452.00077597965776 2.915185e+02
453.000738236156735 2.915153e+02
454.001027357326279 2.915135e+02
455.001852708968784 2.915125e+02
456.000362500163305 2.915112e+02
457.002802758368318 2.915094e+02
458.003196003892697 2.915065e+02
459.001589567564281 2.915027e+02
460.00098547648156 2.914981e+02
461.001317918729342 2.914933e+02
462.002551842731577 2.914883e+02
463.001592478121779 2.914832e+02
464.001455217795467 2.914782e+02
465.002111883247267 2.914737e+02
466.000468289098933 2.914697e+02
467.002609795840613 2.914660e+02
468.002310318274681 2.914625e+02
469.002560530585129 2.914595e+02
470.00329489304346 2.914567e+02
471.001355056605576 2.914541e+02
472.002861665149567 2.914502e+02
473.001561964299583 2.914465e+02
474.000477716033117 2.914427e+02
475.002577107132311 2.914376e+02
476.001650410400828 2.914312e+02
477.000645408034245 2.914238e+02
478.002513955180746 2.914163e+02
479.000964559904673 2.914096e+02
480.002102581843189 2.914028e+02
481.002679955656845 2.913966e+02
482.002597945267041 2.913911e+02
483.001691264800741 2.913866e+02
484.003071616693262 2.913831e+02
485.000336484884144 2.913801e+02
486.002534780768599 2.913771e+02
487.000679987856586 2.913742e+02
488.000926511784712 2.913706e+02
489.003195732206848 2.913661e+02
490.001479003611905 2.913604e+02
491.00212356148603 2.913533e+02
492.002132362470604 2.913438e+02
493.001500802693158 2.913325e+02
494.003297433729529 2.913200e+02
495.001457005393718 2.913078e+02
496.002120008971133 2.912968e+02
497.002342414996406 2.912880e+02
498.002252693521427 2.912814e+02
499.001989458526737 2.912763e+02
500.001708245066993 2.912717e+02
501.001555817569226 2.912669e+02
502.001690502452163 2.912613e+02
503.002238115199248 2.912549e+02
504.003247695359107 2.912476e+02
505.001707145733576 2.912391e+02
506.000673200985545 2.912297e+02
507.003155603728942 2.912204e+02
508.002982725622758 2.912115e+02
509.003130399994632 2.912032e+02
510.000491607245124 2.911959e+02
511.001135291948799 2.911895e+02
512.002000839052812 2.911848e+02
513.003093595891301 2.911818e+02
514.001375092693479 2.911803e+02
515.003006471415006 2.911797e+02
516.001902983398736 2.911792e+02
517.00113814397946 2.911786e+02
518.00075119453777 2.911774e+02
519.000777966113787 2.911757e+02
520.001248976453326 2.911733e+02
521.002200030192284 2.911702e+02
522.000579121023179 2.911665e+02
523.002490070326758 2.911618e+02
524.001753540568302 2.911562e+02
525.001361205130706 2.911498e+02
526.001237747212485 2.911425e+02
527.001309431480308 2.911343e+02
528.001493181315141 2.911257e+02
529.001715178055747 2.911171e+02
530.001904340192596 2.911086e+02
531.00196343448556 2.911004e+02
532.001793707690013 2.910927e+02
533.001327526602267 2.910858e+02
534.000515034029831 2.910800e+02
535.002367044145444 2.910751e+02
536.000711501576916 2.910707e+02
537.001622505152909 2.910663e+02
538.002013323162714 2.910610e+02
539.001869981411801 2.910548e+02
540.001187906447285 2.910476e+02
541.00301284645343 2.910395e+02
542.001225556390295 2.910309e+02
543.001939955503872 2.910221e+02
544.002138172190257 2.910137e+02
545.001861443912048 2.910059e+02
546.001165266284488 2.909990e+02
547.003214520297661 2.909930e+02
548.002042364261229 2.909881e+02
549.000807701796134 2.909837e+02
550.002690842886523 2.909792e+02
551.001696376509585 2.909740e+02
552.00095231417572 2.909682e+02
553.000495569591862 2.909614e+02
554.000326524515344 2.909538e+02
555.000417894257907 2.909457e+02
556.000707039192662 2.909374e+02
557.001146167858792 2.909288e+02
558.001670994217875 2.909199e+02
559.00222091731564 2.909116e+02
560.002760948818832 2.909044e+02
561.003267246031669 2.908984e+02
562.000653783958228 2.908933e+02
563.001006832258781 2.908890e+02
564.001261448977402 2.908853e+02
565.001402261682074 2.908818e+02
566.001416486073595 2.908781e+02
567.001306958242481 2.908743e+02
568.001088612961212 2.908702e+02
569.000803998330184 2.908658e+02
570.000513052084784 2.908612e+02
571.003333279293543 2.908567e+02
572.003240577886913 2.908519e+02
573.003341665373 2.908470e+02
574.000633761695781 2.908417e+02
575.001225046059403 2.908360e+02
576.002067007635901 2.908299e+02
577.003154038258003 2.908236e+02
578.001414355188672 2.908169e+02
579.002919750008573 2.908098e+02
580.001517164221468 2.908023e+02
581.00325516689486 2.907946e+02
582.001964060623095 2.907868e+02
583.00064847655517 2.907794e+02
584.002328360885599 2.907724e+02
585.000854217341839 2.907659e+02
586.002287276351922 2.907597e+02
587.000488461651798 2.907538e+02
588.001527679578999 2.907479e+02
589.002315298506687 2.907418e+02
590.002803789777317 2.907356e+02
591.002957846933668 2.907291e+02
592.002760268551469 2.907226e+02
593.002220829564408 2.907161e+02
594.00137104636849 2.907096e+02
595.003306020155378 2.907033e+02
596.002006081209515 2.906973e+02
597.000594318263893 2.906914e+02
598.002195250785689 2.906854e+02
599.00079741509694 2.906793e+02
600.002570943578235 2.906733e+02
601.00148420696587 2.906671e+02
602.000614201649228 2.906608e+02
603.003028406803764 2.906544e+02
604.002632172737776 2.906479e+02
605.002438767518356 2.906413e+02
606.002393362230237 2.906340e+02
607.002438086213033 2.906265e+02
608.002519571093444 2.906189e+02
609.002594908682113 2.906116e+02
610.002624012444812 2.906046e+02
611.00257420861567 2.905979e+02
612.002421365504119 2.905913e+02
613.00213679326589 2.905847e+02
