#   Area   : 2.13000e-01
#   Time   areaAverage(T)
0.999427 3.031475e+02
2.00049 3.031485e+02
3.00031 3.031480e+02
3.99973 3.031469e+02
4.99982 3.031450e+02
6.00096 3.031425e+02
7.00036 3.031393e+02
8.00025 3.031345e+02
8.99988 3.031276e+02
10.001085 3.031167e+02
11.000692 3.030980e+02
12.00119 3.030742e+02
12.999644 3.030541e+02
14.001532 3.030424e+02
15.00188072 3.030395e+02
15.9998521 3.030402e+02
17.0001205 3.030425e+02
18.00184366 3.030448e+02
19.00135292 3.030477e+02
20.0005918367 3.030538e+02
20.9995397477 3.030627e+02
21.9999156912 3.030717e+02
23.0012895724 3.030795e+02
24.0003674065 3.030862e+02
24.999948250121 3.030920e+02
26.00012718715 3.030971e+02
27.001466255274 3.031014e+02
28.001372738785 3.031051e+02
28.999803564599 3.031084e+02
29.99944846361592 3.031115e+02
30.99971416792314 3.031150e+02
32.00002912117819 3.031193e+02
33.00002149424799 3.031259e+02
33.99970206366805 3.031376e+02
34.9994888382346261 3.031543e+02
35.9999994558824383 3.031769e+02
37.0018773517030652 3.032042e+02
37.9993327402738146 3.032337e+02
39.0009885870554669 3.032634e+02
40.0002845332203236 3.032912e+02
40.9996805758456162 3.033174e+02
42.0019339552180782 3.033419e+02
43.0010232609226932 3.033644e+02
44.0005018845220803 3.033856e+02
45.0012162640623004 3.034059e+02
46.0009897343283143 3.034262e+02
47.0001790180785832 3.034472e+02
48.0019790073555228 3.034699e+02
49.0000584196574067 3.034948e+02
49.99984640599709 3.035221e+02
51.0010593187341854 3.035510e+02
52.0004180581424436 3.035603e+02
53.0008190993681012 3.035251e+02
54.0021485675883568 3.034797e+02
55.0012784264610133 3.034308e+02
56.0011429314178599 3.033796e+02
57.0014168342299001 3.033264e+02
58.0016594690532585 3.032715e+02
59.0014252797878527 3.032151e+02
60.0003136205778702 3.031575e+02
61.001080701931528 3.030987e+02
62.0005213957178398 3.030390e+02
63.0017127486690711 3.029784e+02
64.0016381064634032 3.029172e+02
65.0003564232315227 3.028554e+02
66.0009652294406806 3.027931e+02
67.000476202615431 3.027305e+02
68.0021661056567268 3.026673e+02
69.0001959701988312 3.026041e+02
70.0010694597687575 3.025402e+02
71.0021316117222483 3.024759e+02
72.0007430364561145 3.024113e+02
73.0000455564489101 3.023462e+02
73.999146034110737 3.022809e+02
75.0001908883456707 3.022154e+02
76.0000436667727399 3.021499e+02
77.0021181459045749 3.020841e+02
78.0004897354505715 3.020184e+02
79.0011776452807766 3.019521e+02
80.0009982307494028 3.018856e+02
80.9996232330824171 3.018191e+02
81.9996276593333704 3.017525e+02
83.0009750325997544 3.016856e+02
84.0008352671088261 3.016185e+02
84.9992419303420519 3.015513e+02
85.9993964425957387 3.014834e+02
87.0014720423878032 3.014149e+02
87.9997298245688313 3.013461e+02
89.0003484943188425 3.012766e+02
90.0005423987294648 3.012068e+02
91.0004968721107588 3.011370e+02
92.000382664378634 3.010669e+02
93.000356927783514 3.009962e+02
94.0005807605929675 3.009246e+02
95.0011367318341229 3.008521e+02
96.0020523391495288 3.007793e+02
97.0004307343019576 3.007067e+02
97.999275122197929 3.006340e+02
99.0016598410722963 3.005615e+02
100.001521898879105 3.004893e+02
101.001842775653387 3.004163e+02
101.999523135465012 3.003430e+02
103.000503029726275 3.002693e+02
104.001679862132022 3.001954e+02
104.999857805894763 3.001214e+02
106.000872202795492 3.000464e+02
107.001486509367609 2.999705e+02
108.001479109868015 2.998941e+02
109.00067142973127 2.998169e+02
110.001967679187075 2.997389e+02
110.999338175346836 2.996605e+02
112.001879635745823 2.995815e+02
113.000755950322343 2.995023e+02
113.999196023840923 2.994226e+02
115.000607289495932 2.993423e+02
115.999497210627723 2.992617e+02
116.999360063478619 2.991803e+02
118.000766359280746 2.990983e+02
119.001496268604072 2.990160e+02
120.001990101047951 2.989336e+02
121.00182644090529 2.988514e+02
122.000854046904507 2.987694e+02
123.002065354488749 2.986883e+02
123.999340369654362 2.986095e+02
125.001847912576096 2.985320e+02
126.000435933482393 2.984558e+02
127.001187616790503 2.983799e+02
128.000847357581421 2.983045e+02
128.999279135768262 2.982290e+02
129.999440836993756 2.981528e+02
131.001162907742156 2.980755e+02
132.001278854907838 2.979970e+02
132.999635926991147 2.979169e+02
133.999253825556877 2.978350e+02
134.999984368913829 2.977514e+02
136.001610245680666 2.976655e+02
137.000865838881339 2.975768e+02
138.000605996394995 2.974863e+02
139.000687921125973 2.973960e+02
140.001062049305432 2.973070e+02
141.001772434786687 2.972180e+02
141.999684819475334 2.971270e+02
143.00076951814313 2.970327e+02
144.001582419281874 2.969372e+02
145.001922884608661 2.968439e+02
146.001806960798064 2.967545e+02
147.001317076955985 2.966680e+02
148.000446299306844 2.965821e+02
148.999235558215958 2.964944e+02
150.00104183283716 2.964044e+02
150.99991264813724 2.963131e+02
152.002127601530503 2.962206e+02
153.001628798881228 2.961262e+02
154.001746590970328 2.960300e+02
154.999709747561894 2.959319e+02
156.002006771375591 2.958302e+02
156.999195067494696 2.957267e+02
158.000311629687843 2.956243e+02
159.001926903793134 2.955288e+02
160.000758197588766 2.954427e+02
160.999836910799814 2.953639e+02
162.002011478213745 2.952887e+02
163.000698182442534 2.952141e+02
164.00196140524497 2.951379e+02
164.999270966020049 2.950612e+02
166.001633598095708 2.949873e+02
166.999512380859159 2.949202e+02
167.999323773974766 2.948571e+02
169.001498915793974 2.947948e+02
170.000435541774351 2.947317e+02
170.999948073721612 2.946680e+02
172.000766273232841 2.946056e+02
173.000089408640974 2.945452e+02
174.00119358036622 2.944870e+02
175.000836804712264 2.944280e+02
176.001646996434062 2.943643e+02
177.000399718168978 2.942950e+02
178.000167452474699 2.942221e+02
179.000712041583455 2.941494e+02
180.002009763952515 2.940809e+02
181.001096368904427 2.940174e+02
182.001145276918692 2.939596e+02
183.001579431880856 2.939077e+02
184.002070558137973 2.938601e+02
185.001907401764868 2.938122e+02
186.000736843983162 2.937985e+02
187.001861414754302 2.938045e+02
187.999140361200887 2.938098e+02
189.002108023991468 2.938123e+02
190.001167849139222 2.938138e+02
190.999206771037819 2.938151e+02
191.999236538280485 2.938162e+02
193.001459887401296 2.938168e+02
193.999638955872399 2.938164e+02
194.999676149749916 2.938146e+02
196.001397443033738 2.938110e+02
196.9992568405452 2.938052e+02
197.999695664844239 2.937963e+02
198.999889692173866 2.937842e+02
200.00001000946267 2.937732e+02
201.000025721484718 2.937700e+02
202.00090084271659 2.937751e+02
203.000333587842107 2.937859e+02
204.000707768455953 2.938009e+02
205.000291510830607 2.938197e+02
206.001674138252497 2.938399e+02
206.999456790520981 2.938575e+02
208.002129995644935 2.938693e+02
208.999276652179219 2.938759e+02
209.99953652676146 2.938787e+02
210.999456784332978 2.938776e+02
212.001782903633512 2.938716e+02
213.000325330571911 2.938628e+02
214.001476421188244 2.938544e+02
214.999514924187082 2.938484e+02
216.001227605430643 2.938459e+02
217.001851839044264 2.938486e+02
218.000110898020807 2.938553e+02
219.000629554038824 2.938630e+02
220.001296913732972 2.938675e+02
220.999270473629934 2.938670e+02
222.000956823787874 2.938619e+02
222.999937840544902 2.938591e+02
224.001497003018699 2.938665e+02
225.001396826364015 2.938877e+02
226.001828774732815 2.939184e+02
227.001923879091834 2.939437e+02
228.001209942462509 2.939522e+02
228.99940332569372 2.939452e+02
230.002166033701997 2.939325e+02
231.000096727941241 2.939232e+02
231.999178044472188 2.939166e+02
233.002040330756273 2.939057e+02
233.999563427198211 2.938840e+02
235.001633328433627 2.938567e+02
235.999798857902931 2.938404e+02
237.000197452507706 2.938441e+02
237.999656612672823 2.938599e+02
239.001279081014388 2.938699e+02
239.999560521160504 2.938601e+02
241.001686776451493 2.938269e+02
242.000667631852821 2.937828e+02
243.001570019284145 2.937486e+02
244.0003796352037 2.937348e+02
245.001989206129053 2.937376e+02
245.99943725677366 2.937465e+02
247.001334494583602 2.937509e+02
248.001045887583786 2.937486e+02
249.001692673150586 2.937475e+02
250.000044092378573 2.937588e+02
251.001967578495737 2.937833e+02
252.000981866954675 2.938102e+02
253.000313966001272 2.938291e+02
254.000248685661717 2.938412e+02
255.000902406740039 2.938514e+02
256.002153219615309 2.938618e+02
257.000631544372425 2.938712e+02
257.99940337949073 2.938809e+02
259.001574262039924 2.938936e+02
260.000987701928807 2.939078e+02
261.000925684200979 2.939195e+02
262.001569124918944 2.939277e+02
262.999370771059034 2.939323e+02
264.00034752693648 2.939347e+02
265.001715955383133 2.939340e+02
266.000664406796716 2.939277e+02
267.000012753799354 2.939167e+02
267.99910982955663 2.939058e+02
269.000701541105229 2.938981e+02
270.001708483683387 2.938931e+02
270.99951137798314 2.938870e+02
272.000697702657078 2.938800e+02
273.002018579891455 2.938751e+02
274.000205581636123 2.938757e+02
275.001575470153625 2.938821e+02
276.000197594390443 2.938916e+02
276.9992164712869 2.939008e+02
278.001243367150039 2.939115e+02
278.999599529310728 2.939249e+02
280.000333522165079 2.939412e+02
281.000476909040515 2.939575e+02
282.000149995020706 2.939720e+02
283.002197103271499 2.939865e+02
284.000379637292156 2.940014e+02
285.001012203510243 2.940170e+02
286.001076444831654 2.940314e+02
287.000436975189871 2.940435e+02
288.002046501910172 2.940553e+02
288.999824068398652 2.940669e+02
290.000275626230916 2.940780e+02
291.000274269183194 2.940878e+02
291.99955898483347 2.940975e+02
293.001191139576406 2.941083e+02
293.999216408513121 2.941197e+02
295.000071034484961 2.941299e+02
296.000564081584969 2.941380e+02
297.000614504448379 2.941458e+02
298.000349977717917 2.941558e+02
298.999968214517764 2.941676e+02
299.999560088315718 2.941781e+02
301.002195281138484 2.941845e+02
302.001675707413995 2.941890e+02
303.001138090472352 2.941967e+02
304.000799282258299 2.942081e+02
305.000926932348818 2.942195e+02
306.001690554722472 2.942280e+02
307.000047822748513 2.942353e+02
308.002198067349582 2.942440e+02
309.001808871584217 2.942500e+02
310.001858573359357 2.942542e+02
311.002184243258682 2.942556e+02
311.999461220165017 2.942576e+02
312.999753797771177 2.942610e+02
313.999744042724103 2.942612e+02
314.999690828328198 2.942634e+02
315.999818981944316 2.942652e+02
317.00023091619164 2.942650e+02
318.001098976863545 2.942630e+02
318.999373831436969 2.942603e+02
320.001211808147787 2.942573e+02
321.000226106069363 2.942532e+02
321.999376034933562 2.942487e+02
323.001651389070332 2.942418e+02
324.000748086089516 2.942336e+02
324.999703333702655 2.942249e+02
326.001545828889505 2.942176e+02
326.999937467213101 2.942122e+02
328.00111811584469 2.942067e+02
329.001987696958963 2.942010e+02
329.999422553698025 2.941963e+02
330.999715268247314 2.941959e+02
331.999918194926238 2.941992e+02
333.000108392727668 2.942062e+02
334.00022370975563 2.942159e+02
335.000065906066311 2.942275e+02
335.999399097867354 2.942412e+02
337.001230073471334 2.942552e+02
337.999469219042339 2.942677e+02
339.000550714207805 2.942795e+02
340.001507743738898 2.942909e+02
340.999265990458866 2.943021e+02
341.99996815002072 2.943119e+02
343.000440100121239 2.943195e+02
344.000532404831404 2.943270e+02
345.000106709154068 2.943361e+02
345.999225670617307 2.943465e+02
347.001234387934119 2.943549e+02
348.00009316047209 2.943596e+02
349.001932533937179 2.943630e+02
350.000486460507489 2.943688e+02
351.002013181575876 2.943776e+02
352.000443134278157 2.943857e+02
353.001921276936002 2.943896e+02
354.000062360057882 2.943918e+02
355.000895225558452 2.943959e+02
356.001459075669345 2.944029e+02
357.00201177678548 2.944106e+02
357.999561179209422 2.944162e+02
359.000168374413931 2.944207e+02
360.000591874349936 2.944262e+02
361.00084645387534 2.944333e+02
362.001138646943787 2.944390e+02
363.001663311250468 2.944414e+02
363.999346540087515 2.944438e+02
365.000242057282549 2.944497e+02
366.001228622373162 2.944594e+02
366.999349217430961 2.944701e+02
368.000952455183608 2.944788e+02
368.999926900583603 2.944854e+02
369.999355488438312 2.944924e+02
370.999133130106941 2.945009e+02
371.999210594023111 2.945069e+02
372.999575543232538 2.945101e+02
374.000205095512115 2.945111e+02
375.001055730509222 2.945116e+02
376.002174880347638 2.945112e+02
377.000611896637395 2.945079e+02
377.99954966619373 2.944985e+02
379.002045647678301 2.944876e+02
380.001643380302028 2.944762e+02
381.001231302158544 2.944648e+02
382.000737562198879 2.944511e+02
383.000233295269027 2.944365e+02
383.999861042211705 2.944227e+02
384.999731989993052 2.944105e+02
385.999861936302523 2.943996e+02
387.000215319285815 2.943914e+02
388.00068383679212 2.943840e+02
389.001186324506989 2.943793e+02
390.001610851117277 2.943756e+02
391.001869615681301 2.943739e+02
392.001892200649195 2.943729e+02
393.001690126302037 2.943714e+02
394.001215543129092 2.943714e+02
395.000274367074383 2.943735e+02
396.001750172953393 2.943798e+02
396.999406228935811 2.943898e+02
397.999520001533199 2.943995e+02
399.002183028809839 2.944088e+02
400.001196576230655 2.944212e+02
400.99969694708949 2.944380e+02
402.001069254807533 2.944571e+02
402.999399294612942 2.944755e+02
404.00099757103294 2.944896e+02
404.999682728240828 2.945019e+02
406.001576591325716 2.945163e+02
407.000477904558295 2.945339e+02
407.999540113344096 2.945524e+02
409.001902516955738 2.945681e+02
410.001292038800955 2.945793e+02
411.000615087625135 2.945877e+02
411.999723106324382 2.945959e+02
413.001646711634294 2.946045e+02
414.000207196156282 2.946129e+02
415.001610882202385 2.946207e+02
415.999652934693358 2.946281e+02
417.000455128680642 2.946359e+02
418.000876805147186 2.946445e+02
419.000989618787287 2.946546e+02
420.000983464306273 2.946659e+02
421.000958776981918 2.946773e+02
422.000921377193549 2.946889e+02
423.000903035610179 2.947014e+02
424.000904214156037 2.947148e+02
425.000996649867034 2.947297e+02
426.001160750606346 2.947430e+02
427.001494333960409 2.947540e+02
428.00209677977233 2.947631e+02
428.999910178610492 2.947710e+02
430.001192944803847 2.947778e+02
430.999883937068262 2.947821e+02
432.002202121200241 2.947834e+02
433.001903892023677 2.947824e+02
434.002005737559898 2.947793e+02
434.999385616044265 2.947743e+02
436.000201877582526 2.947690e+02
437.001170918164519 2.947635e+02
438.00212978450827 2.947575e+02
438.999920319968794 2.947490e+02
440.000710572743458 2.947382e+02
441.001408466297789 2.947279e+02
442.002064763753197 2.947180e+02
442.999679990907794 2.947087e+02
444.00057273407225 2.946991e+02
445.001775635677234 2.946904e+02
446.000295765137821 2.946832e+02
446.999273686880258 2.946777e+02
448.00177272814733 2.946737e+02
449.001483319675515 2.946701e+02
450.001398579097838 2.946663e+02
451.001472926408155 2.946636e+02
452.001741264542147 2.946619e+02
453.002211916973351 2.946607e+02
453.999737617464689 2.946602e+02
455.000437219421826 2.946608e+02
456.001057490577352 2.946626e+02
457.001348043989196 2.946660e+02
458.000942666287756 2.946686e+02
458.999749584671974 2.946726e+02
460.000918742720728 2.946769e+02
461.00124329032144 2.946843e+02
462.000823408848817 2.946967e+02
463.000017155035152 2.947117e+02
463.999253962609714 2.947300e+02
465.001890335189728 2.947504e+02
466.002118929764606 2.947711e+02
466.999659031784518 2.947870e+02
468.000531465963604 2.947987e+02
469.001255511123759 2.948072e+02
470.001491495706659 2.948140e+02
471.000964692035268 2.948206e+02
471.999536830846523 2.948276e+02
473.000301447331992 2.948352e+02
474.00021143251297 2.948430e+02
474.9993601687097 2.948516e+02
476.000783431550246 2.948600e+02
477.001426683457225 2.948691e+02
478.0013294679826 2.948791e+02
479.000575914768376 2.948902e+02
479.999234902912406 2.949008e+02
481.000479209138859 2.949100e+02
482.001295910090278 2.949166e+02
483.001704139410492 2.949226e+02
484.00178408342299 2.949302e+02
485.001664822552584 2.949389e+02
486.001406635918386 2.949473e+02
487.001087007316471 2.949545e+02
488.000850381713917 2.949605e+02
489.000813344166488 2.949646e+02
490.000981795566474 2.949685e+02
491.00125832246249 2.949737e+02
492.001684217808304 2.949799e+02
492.99939413848648 2.949860e+02
494.000719238769705 2.949914e+02
494.999660839723674 2.949957e+02
495.999293729543808 2.949991e+02
496.999453356528591 2.950035e+02
497.999887946345211 2.950088e+02
499.000442029133922 2.950144e+02
500.001111835344943 2.950194e+02
501.002019601352572 2.950230e+02
502.000236568689388 2.950256e+02
503.002039400038257 2.950301e+02
504.0012787918306 2.950346e+02
505.001007414161222 2.950361e+02
506.001186752185674 2.950345e+02
507.001709368306422 2.950313e+02
507.999371288790201 2.950273e+02
509.000251781738996 2.950233e+02
510.001183589321784 2.950201e+02
511.002164067143099 2.950172e+02
512.000130656694409 2.950159e+02
513.001215504268885 2.950170e+02
513.999181033360628 2.950210e+02
515.000180110856263 2.950290e+02
516.001133014596462 2.950411e+02
517.002031612560131 2.950558e+02
517.999751928516162 2.950720e+02
519.000446535678634 2.950897e+02
520.001009309554775 2.951086e+02
521.001366067921367 2.951290e+02
522.001367871790421 2.951518e+02
523.000958416949402 2.951762e+02
523.999884850454464 2.952014e+02
525.000863078397288 2.952267e+02
526.000730387074327 2.952531e+02
526.999447329576697 2.952779e+02
527.999970309836385 2.953025e+02
528.99918668330281 2.953279e+02
530.000148515173805 2.953529e+02
530.999840949936242 2.953768e+02
532.001438770098389 2.954014e+02
533.002105702725999 2.954263e+02
534.002128614176513 2.954522e+02
535.001675572193221 2.954762e+02
536.00079731984556 2.954993e+02
536.999417545581878 2.955211e+02
538.000507994268219 2.955403e+02
539.001045920197612 2.955574e+02
540.001107217858362 2.955685e+02
541.000793522413232 2.955727e+02
542.00036395165921 2.955709e+02
543.000056709638443 2.955634e+02
543.999965601871168 2.955525e+02
545.000067956279395 2.955392e+02
546.000298926345408 2.955235e+02
547.000615497026843 2.955048e+02
548.001060929089135 2.954846e+02
549.0016914245723 2.954644e+02
549.99942313618601 2.954453e+02
551.000339615319149 2.954276e+02
552.001564518718737 2.954116e+02
553.000333763680032 2.953972e+02
553.999953309227521 2.953842e+02
555.000500307863376 2.953729e+02
556.001853977236806 2.953642e+02
557.000742435261373 2.953581e+02
558.000057234439168 2.953545e+02
558.999698243294233 2.953524e+02
559.999593029056996 2.953514e+02
560.99969689862553 2.953526e+02
561.99998784127024 2.953571e+02
563.000428298000998 2.953658e+02
564.000935833766334 2.953774e+02
565.001314925658789 2.953920e+02
566.001418003635649 2.954081e+02
567.001209790490293 2.954247e+02
568.00068689245677 2.954416e+02
568.999859324308204 2.954585e+02
570.001766381477182 2.954740e+02
571.000411212337326 2.954875e+02
572.002070603366519 2.954984e+02
573.000711331323714 2.955063e+02
573.999307423024675 2.955114e+02
575.000728360617927 2.955133e+02
576.001726066406832 2.955121e+02
577.002114498358651 2.955097e+02
578.001691270227298 2.955071e+02
579.000250033733209 2.955040e+02
580.000886306321149 2.955014e+02
581.000895918832953 2.954977e+02
582.00066889190964 2.954920e+02
583.000556948397843 2.954840e+02
584.000894905743849 2.954753e+02
585.001793707317006 2.954685e+02
586.00022477092125 2.954635e+02
586.999263799181108 2.954612e+02
588.002109183619609 2.954630e+02
589.000030943304182 2.954685e+02
589.999587108224659 2.954761e+02
591.001140016381328 2.954838e+02
592.001698272853673 2.954915e+02
593.001057265885606 2.954996e+02
594.001939881682006 2.955078e+02
595.001024080226216 2.955115e+02
596.001273861919799 2.955098e+02
596.999480325205809 2.955027e+02
598.001604292596426 2.954957e+02
599.001215452755446 2.954894e+02
600.001199900228812 2.954855e+02
601.001344681704381 2.954796e+02
602.001702733897105 2.954712e+02
602.99941363408459 2.954608e+02
604.000728454961632 2.954490e+02
604.99933007184859 2.954388e+02
606.001174877580752 2.954309e+02
606.999792466388385 2.954236e+02
608.001203869894994 2.954148e+02
609.002070819266237 2.954059e+02
609.999266336824917 2.953997e+02
610.999757468849339 2.953974e+02
612.00139002093556 2.953957e+02
613.001600806116585 2.953934e+02
614.000189069724684 2.953921e+02
