# Region type : patch sidenode2U_2_Inlet_0
#   Faces  : 172
#   Area   : 1.730027e-02
#        Time	areaAverage(T)
     0.999427	3.001500e+02
      2.00049	3.001499e+02
      3.00031	3.001499e+02
      3.99974	3.001500e+02
     4.999837	3.001500e+02
      6.00101	3.001500e+02
     7.000448	3.001500e+02
     8.000372	3.001497e+02
     9.000012	3.001494e+02
   10.0011397	3.001492e+02
   11.0005125	3.001492e+02
   12.0006256	3.001489e+02
   13.0011117	3.001482e+02
   13.9997545	3.001474e+02
 14.999678163	3.001471e+02
 15.999607758	3.001468e+02
 17.001423079	3.001459e+02
 18.000125537	3.001441e+02
 19.000241824	3.001421e+02
20.0017637999	3.001410e+02
20.9996095701	3.001399e+02
22.0019702438	3.001366e+02
 22.999320956	3.001301e+02
24.0004117324	3.001238e+02
25.001912685444	3.001251e+02
26.000815381156	3.001382e+02
27.000616308207	3.001552e+02
28.001753186764	3.001693e+02
29.00103025218	3.001807e+02
30.00096884102414	3.001920e+02
31.0010466924629	3.002039e+02
32.00076191534071	3.002142e+02
32.99994752892779	3.002219e+02
34.00185910390489	3.002275e+02
35.00094148549404	3.002327e+02
36.0007323908276	3.002397e+02
37.00168518983952	3.002500e+02
38.00099208641546	3.002633e+02
39.00157851096972	3.002783e+02
39.9996303786337393	3.002934e+02
41.0004953412502999	3.003078e+02
42.0009070206368165	3.003208e+02
43.0008319248529602	3.003327e+02
44.0005488391913389	3.003438e+02
45.0006530563491651	3.003541e+02
46.0017181984809156	3.003638e+02
47.0009495583614481	3.003728e+02
48.0018396077909131	3.003809e+02
49.0015515004562801	3.003879e+02
49.9999329171132274	3.003935e+02
50.9997297372635359	3.003976e+02
52.0007723885163031	3.004000e+02
52.9999861900431952	3.004010e+02
54.0004187036915866	3.004015e+02
55.0020986480979488	3.004028e+02
56.0018978015979485	3.004061e+02
56.9997709032349675	3.004120e+02
58.0017761736346387	3.004209e+02
59.0015984460411929	3.004326e+02
60.0021521568440548	3.004464e+02
61.000098740020384	3.004614e+02
62.0012673557279967	3.004772e+02
63.0022013247344859	3.004932e+02
63.9994497110408744	3.005095e+02
65.002054107660129	3.005263e+02
66.0007129160335353	3.005435e+02
67.001732642028287	3.005614e+02
68.0022184161371825	3.005795e+02
69.0023282304698569	3.005974e+02
70.0020967323733316	3.006146e+02
71.0014626894989078	3.006308e+02
72.000347206961905	3.006462e+02
73.001814536130297	3.006610e+02
73.999803696464312	3.006756e+02
75.0005142580166506	3.006906e+02
76.0009472599216451	3.007062e+02
77.0010967364421219	3.007224e+02
78.0008778649198149	3.007393e+02
79.0002325173825	3.007567e+02
80.0023181581406391	3.007745e+02
81.0010950209574219	3.007927e+02
81.9997182112844456	3.008111e+02
83.0013300977933284	3.008294e+02
83.9999391470229	3.008474e+02
85.0018435010252347	3.008649e+02
86.0008606208824204	3.008817e+02
86.9999880338603901	3.008972e+02
88.0020037995171407	3.009114e+02
89.0004046785960838	3.009249e+02
90.0010837849391692	3.009382e+02
91.0008285090756743	3.009507e+02
91.9994646174541089	3.009621e+02
93.0000853875089604	3.009730e+02
93.9995910128285601	3.009834e+02
95.0012163098537314	3.009936e+02
96.0020133773239053	3.010032e+02
97.0020574698554583	3.010124e+02
98.0014642115947225	3.010212e+02
99.0003686226269366	3.010298e+02
100.001947089189784	3.010382e+02
101.000271179902313	3.010464e+02
102.001523406674536	3.010545e+02
102.99969570444479	3.010625e+02
104.000908865614974	3.010704e+02
105.002152263136153	3.010782e+02
106.000378067992287	3.010860e+02
107.00163414543087	3.010939e+02
107.999820550515125	3.011017e+02
109.000984406227602	3.011096e+02
110.002068239247023	3.011175e+02
111.00001858391191	3.011255e+02
112.000888836224746	3.011334e+02
113.001617997014293	3.011412e+02
114.002209263695818	3.011489e+02
114.99960718464024	3.011564e+02
115.999872131530168	3.011636e+02
116.999973228238687	3.011704e+02
117.999915759184802	3.011768e+02
118.999696297663988	3.011828e+02
120.002346978990104	3.011883e+02
121.001802203412097	3.011931e+02
122.001089430002338	3.011973e+02
123.000195781257958	3.012006e+02
124.002145808338966	3.012031e+02
125.00086390218344	3.012048e+02
126.002399932855283	3.012057e+02
127.000675423971757	3.012059e+02
128.001718892295969	3.012055e+02
129.002474220212093	3.012044e+02
129.999899023642627	3.012029e+02
131.000022883252541	3.012011e+02
131.99980357745423	3.011991e+02
133.002201975843775	3.011970e+02
134.00121011720671	3.011942e+02
134.999895059076891	3.011903e+02
136.001354881184824	3.011849e+02
136.999671981025131	3.011777e+02
138.001014733980639	3.011688e+02
138.999511912610359	3.011592e+02
140.001372693757475	3.011501e+02
141.000721369328062	3.011415e+02
142.000678826319387	3.011329e+02
143.001410269753791	3.011235e+02
144.000025124920398	3.011125e+02
144.999619595327431	3.010998e+02
146.0002268439452	3.010859e+02
147.001934284146188	3.010711e+02
148.00171385002426	3.010549e+02
148.999570758778503	3.010364e+02
150.001460268790225	3.010137e+02
151.001471625160036	3.009854e+02
151.999643271126928	3.009516e+02
153.002234693194737	3.009129e+02
154.000017083123623	3.008717e+02
155.002075368657557	3.008293e+02
156.002171319720389	3.007886e+02
157.000201221534894	3.007508e+02
158.002214270236891	3.007174e+02
159.002025935581884	3.006900e+02
159.999611888222489	3.006672e+02
161.001110797304506	3.006466e+02
162.000431518502523	3.006263e+02
163.000598996626394	3.006053e+02
164.001657526757469	3.005848e+02
165.000611927010681	3.005669e+02
166.000636570257399	3.005540e+02
167.001966936224989	3.005473e+02
168.001524024576383	3.005464e+02
168.999535062912372	3.005496e+02
170.002373244580212	3.005549e+02
171.000526233348893	3.005604e+02
171.999938935686771	3.005653e+02
173.000419891909644	3.005695e+02
174.001722928412619	3.005731e+02
175.000512625435874	3.005762e+02
175.999767070886492	3.005794e+02
176.99954079770464	3.005835e+02
178.000007481480537	3.005894e+02
179.001172133937928	3.005967e+02
179.999682450687942	3.006039e+02
181.001635694069051	3.006092e+02
182.000592152761328	3.006106e+02
182.999519896950915	3.006073e+02
184.00124781430452	3.005994e+02
185.002486385811778	3.005879e+02
186.000255045406107	3.005747e+02
187.001127013245792	3.005608e+02
188.002072581649884	3.005475e+02
188.999892205631966	3.005356e+02
190.000705973510435	3.005251e+02
191.001383975613464	3.005157e+02
192.002166445431158	3.005067e+02
193.000098668779714	3.004982e+02
194.001181195154828	3.004903e+02
195.001620137572985	3.004834e+02
196.001178650808271	3.004779e+02
197.000350796765275	3.004739e+02
197.999660542726929	3.004715e+02
199.002335025356558	3.004692e+02
200.001935586922144	3.004639e+02
201.001414943333913	3.004536e+02
202.000868928127431	3.004391e+02
202.999997842964206	3.004228e+02
204.0016310147914	3.004065e+02
205.002166413694084	3.003911e+02
206.001116309208413	3.003759e+02
207.001381956321211	3.003594e+02
207.9998943985035	3.003413e+02
208.999583940723255	3.003229e+02
209.99984336437123	3.003059e+02
211.000998253438354	3.002917e+02
212.000320780333084	3.002804e+02
213.000148791994746	3.002712e+02
214.000519730077229	3.002634e+02
215.000147433256899	3.002566e+02
216.001291672560797	3.002515e+02
217.001249723514121	3.002487e+02
218.002346265045077	3.002480e+02
219.001117517151101	3.002483e+02
220.000179332863723	3.002479e+02
221.001984233296611	3.002447e+02
222.000019298464537	3.002368e+02
223.000472483728515	3.002230e+02
224.000035929419795	3.002027e+02
225.001538814148404	3.001765e+02
226.002232348217717	3.001458e+02
227.002169872115275	3.001123e+02
228.000958699243625	3.000771e+02
229.001727466383443	3.000413e+02
230.001349947985972	3.000061e+02
230.99980440953388	2.999720e+02
232.000658677140137	2.999388e+02
233.000406829737074	2.999061e+02
234.001889288894915	2.998754e+02
234.999987857891028	2.998468e+02
236.000824748772231	2.998207e+02
237.00126402941325	2.997981e+02
238.001397825822721	2.997792e+02
239.001659752754847	2.997634e+02
240.002266841204374	2.997504e+02
241.000261468869382	2.997399e+02
242.001944879210811	2.997305e+02
243.001454555426477	2.997223e+02
244.001972006663124	2.997146e+02
245.000650011113038	2.997072e+02
246.000794019596583	2.996998e+02
246.999515043074808	2.996926e+02
247.999991685574656	2.996855e+02
249.002356430929581	2.996786e+02
250.000565355472645	2.996716e+02
251.000732934448166	2.996647e+02
251.999708502626078	2.996580e+02
253.000512989818787	2.996513e+02
253.999885102590099	2.996445e+02
255.001070266916685	2.996370e+02
256.000839560378154	2.996283e+02
257.002428650690433	2.996179e+02
257.999811689606702	2.996064e+02
259.001750639557088	2.995942e+02
260.001118134239789	2.995818e+02
261.0003499609453	2.995690e+02
262.002242301688852	2.995563e+02
263.00038849849949	2.995439e+02
264.000905347231651	2.995314e+02
265.000507148832071	2.995180e+02
266.001962269527269	2.995034e+02
267.001916114889923	2.994870e+02
268.000509559255079	2.994689e+02
269.000928206782703	2.994495e+02
270.000007865947964	2.994296e+02
271.000424375674072	2.994113e+02
272.001918020223684	2.993960e+02
273.001711716248963	2.993846e+02
274.000259563707004	2.993774e+02
275.001150352234959	2.993742e+02
276.001368364580856	2.993743e+02
277.000464361424179	2.993774e+02
278.001159856900301	2.993831e+02
279.000440219970642	2.993909e+02
280.001416704900123	2.994000e+02
281.001363233582481	2.994094e+02
282.000450491904587	2.994177e+02
283.001441506528238	2.994240e+02
284.000898257364383	2.994275e+02
285.001884224806759	2.994275e+02
286.001695158509449	2.994238e+02
287.00083686584918	2.994161e+02
287.999779922023777	2.994048e+02
289.00217000750348	2.993909e+02
289.999818932370886	2.993760e+02
291.002390998074702	2.993608e+02
292.000324383956922	2.993462e+02
293.002281315476978	2.993316e+02
294.001828078367453	2.993157e+02
295.001611671774583	2.992973e+02
296.001314901285866	2.992763e+02
297.00088689875497	2.992563e+02
298.00038530568753	2.992406e+02
298.99979428595401	2.992292e+02
300.002174996140184	2.992198e+02
301.001629792814299	2.992104e+02
302.001459111373606	2.992011e+02
303.001930965865313	2.991928e+02
304.000231942945902	2.991870e+02
304.999558167453529	2.991850e+02
305.999740373459133	2.991870e+02
307.00049372421114	2.991926e+02
308.001623502406176	2.992008e+02
308.999886381099657	2.992104e+02
310.001413061204403	2.992202e+02
311.000237423209796	2.992294e+02
311.999647676510733	2.992374e+02
312.999797447474521	2.992433e+02
314.00077313436168	2.992465e+02
314.999478399374595	2.992468e+02
316.001990115735566	2.992444e+02
317.001905398249903	2.992403e+02
318.002171419029537	2.992358e+02
318.999812552419371	2.992320e+02
320.001245077814531	2.992299e+02
321.00032755763084	2.992296e+02
321.999810468384169	2.992308e+02
322.99953236046241	2.992328e+02
324.002261250268589	2.992346e+02
325.00131355461167	2.992356e+02
325.999607697640556	2.992351e+02
327.000043180232751	2.992326e+02
328.002412231241237	2.992277e+02
329.000458313912361	2.992205e+02
330.000575270518993	2.992109e+02
330.99988426793476	2.991998e+02
332.001383612835525	2.991873e+02
333.002008264080985	2.991737e+02
334.00191188491641	2.991595e+02
335.00115025317632	2.991451e+02
335.999693180028885	2.991322e+02
337.000793258894248	2.991216e+02
338.001952926178944	2.991135e+02
339.000304708887768	2.991069e+02
340.002014322204161	2.991011e+02
341.001025424621218	2.990961e+02
342.00024299366703	2.990916e+02
342.999464099637976	2.990874e+02
344.001543545480956	2.990831e+02
345.000291069840671	2.990781e+02
346.001795610644365	2.990717e+02
346.999927843140654	2.990633e+02
348.000987026071982	2.990534e+02
349.002165312943305	2.990421e+02
350.000459537454105	2.990301e+02
351.001932414771431	2.990188e+02
352.000442991369937	2.990087e+02
353.002185159184023	2.990018e+02
354.000931348699794	2.989984e+02
354.999606586708012	2.989976e+02
356.001242268716737	2.989985e+02
356.99973038914743	2.989996e+02
358.001176667245943	2.990000e+02
358.99945403706937	2.989990e+02
360.000768690903158	2.989965e+02
361.002189686773875	2.989928e+02
362.000773394692033	2.989885e+02
362.999684936947801	2.989842e+02
364.002107137089581	2.989807e+02
365.002007967804445	2.989781e+02
365.999470042928806	2.989767e+02
367.000687280871944	2.989764e+02
367.999530951051156	2.989771e+02
369.002067429825445	2.989783e+02
370.001889301599874	2.989794e+02
371.001790006237911	2.989800e+02
372.001657672861313	2.989801e+02
373.001395802476452	2.989799e+02
374.000962132299151	2.989798e+02
375.000382853457552	2.989803e+02
375.999792565119492	2.989820e+02
377.002436551305266	2.989846e+02
378.002318536379676	2.989871e+02
378.999502150836918	2.989882e+02
380.000040843411853	2.989865e+02
381.000627384820518	2.989820e+02
382.001002752364514	2.989756e+02
383.00115669650495	2.989687e+02
384.001362274559426	2.989625e+02
385.001836803982656	2.989582e+02
385.999673120352725	2.989557e+02
387.001085723101198	2.989543e+02
387.999674785773095	2.989534e+02
389.001503394841222	2.989524e+02
390.000277953550949	2.989506e+02
391.001992424886225	2.989477e+02
392.000294823884644	2.989432e+02
393.001073367511026	2.989366e+02
394.001031081924282	2.989274e+02
395.000083225457615	2.989162e+02
396.001391167296504	2.989040e+02
397.002142969087799	2.988917e+02
398.002486927678831	2.988805e+02
399.002454552175777	2.988708e+02
400.001999540525617	2.988624e+02
401.000839329190683	2.988544e+02
402.001818410464637	2.988459e+02
403.001560964542819	2.988365e+02
403.999786884809168	2.988265e+02
404.999724608758868	2.988163e+02
406.002155654581145	2.988057e+02
407.001519020125158	2.987945e+02
408.001202559612636	2.987827e+02
409.001369975461614	2.987708e+02
410.002043393628696	2.987599e+02
410.999972389979689	2.987505e+02
412.001170458417903	2.987427e+02
412.999627710769573	2.987360e+02
414.001692730684454	2.987300e+02
415.001429484919584	2.987246e+02
416.001825319840179	2.987200e+02
416.999635767361269	2.987161e+02
418.000859963892083	2.987129e+02
419.002365467976858	2.987110e+02
420.001016045350354	2.987108e+02
420.999914896541213	2.987132e+02
422.002133010558055	2.987189e+02
423.001501058126678	2.987275e+02
424.001069151508716	2.987375e+02
425.000824954660288	2.987469e+02
426.000668953435365	2.987539e+02
427.000478133099705	2.987572e+02
428.000310505721586	2.987567e+02
429.000300211275032	2.987533e+02
430.00050079737332	2.987486e+02
431.000971266033559	2.987434e+02
432.001782535379562	2.987388e+02
432.999925628943629	2.987352e+02
434.001561009992656	2.987327e+02
435.000563914871123	2.987309e+02
435.999970321399474	2.987296e+02
436.999630166304769	2.987283e+02
438.002466683619161	2.987267e+02
439.002192183795387	2.987242e+02
440.001688224110467	2.987205e+02
441.000709643122434	2.987154e+02
442.002232338345664	2.987091e+02
443.000112582989857	2.987028e+02
444.000667855841584	2.986973e+02
445.001001007242792	2.986929e+02
446.001186836704903	2.986893e+02
447.001232704298559	2.986855e+02
448.000910513210442	2.986800e+02
449.000011552115325	2.986719e+02
450.00110361713098	2.986615e+02
451.000822641461355	2.986498e+02
452.002366066913225	2.986379e+02
453.000011650833812	2.986265e+02
454.000108872903866	2.986152e+02
455.000233422348913	2.986036e+02
456.000785399313656	2.985920e+02
457.001850476985567	2.985810e+02
458.000289331378383	2.985715e+02
459.002052251780583	2.985636e+02
460.001104160380521	2.985573e+02
461.000605394844229	2.985520e+02
462.000647284535148	2.985473e+02
463.001173175470285	2.985424e+02
464.00204395615998	2.985375e+02
465.000109990166891	2.985328e+02
466.001419342150768	2.985291e+02
466.999665365169903	2.985272e+02
468.000946758895623	2.985281e+02
469.00234917832978	2.985319e+02
470.000864960320541	2.985381e+02
471.002477313541476	2.985452e+02
472.000846115626814	2.985508e+02
473.001921648078792	2.985529e+02
473.999450733767674	2.985506e+02
475.002485419731613	2.985443e+02
476.001736261685664	2.985348e+02
477.000260252070859	2.985235e+02
478.001290283438777	2.985117e+02
479.002008661757372	2.985002e+02
479.999562910336579	2.984896e+02
481.000322084070604	2.984806e+02
482.001520182046136	2.984737e+02
483.000129708258498	2.984687e+02
484.002359095712279	2.984654e+02
485.002231876276539	2.984633e+02
485.999765812743988	2.984617e+02
487.000864815357943	2.984598e+02
488.002170062228913	2.984572e+02
489.00045954244689	2.984541e+02
490.001794625150296	2.984511e+02
491.000023860958038	2.984493e+02
492.001336155991623	2.984494e+02
492.999710818571032	2.984515e+02
494.001329079959532	2.984551e+02
494.999968105950188	2.984586e+02
496.001562342131649	2.984600e+02
496.999754554658693	2.984576e+02
498.000257974445901	2.984511e+02
498.999633121729119	2.984412e+02
500.000600046659713	2.984294e+02
501.000301677009986	2.984169e+02
502.002412948044253	2.984043e+02
503.001270200884846	2.983918e+02
504.000282790935785	2.983794e+02
504.999706850163989	2.983677e+02
505.999664625479113	2.983577e+02
507.000112705771187	2.983498e+02
508.001079532326344	2.983439e+02
508.999694129455179	2.983398e+02
510.002150127088953	2.983371e+02
511.002218394323165	2.983350e+02
511.999617029439776	2.983331e+02
513.000336886104947	2.983310e+02
514.001282186812773	2.983292e+02
515.002424232829867	2.983286e+02
516.000697486192735	2.983299e+02
517.002277367944544	2.983333e+02
518.001087041363917	2.983380e+02
519.000070186908943	2.983427e+02
520.002061922669782	2.983451e+02
521.000512523646989	2.983434e+02
522.001053482481552	2.983369e+02
523.00007566929969	2.983263e+02
524.00040467210556	2.983133e+02
525.002202554868177	2.982989e+02
525.999694312942552	2.982841e+02
526.999458637387761	2.982693e+02
528.002023008216497	2.982547e+02
529.001696489106394	2.982411e+02
530.001685071507382	2.982295e+02
531.002105257858034	2.982206e+02
532.000102648962866	2.982144e+02
533.002010846639109	2.982108e+02
534.001793663617718	2.982093e+02
535.00238793895619	2.982090e+02
536.000543394840406	2.982091e+02
537.00221616204044	2.982090e+02
538.001316173628652	2.982088e+02
539.000898988117228	2.982091e+02
540.000958099782565	2.982111e+02
541.001466161834855	2.982148e+02
542.002421923823476	2.982196e+02
543.000713570675316	2.982244e+02
544.002193041538362	2.982274e+02
545.000406429081409	2.982266e+02
546.00095340545306	2.982213e+02
547.00021874262427	2.982118e+02
548.000745048939393	2.981993e+02
549.002445044088745	2.981852e+02
549.999562917941262	2.981704e+02
551.001704629471192	2.981553e+02
552.000285762018734	2.981406e+02
553.001876807178064	2.981269e+02
554.000655055405559	2.981152e+02
554.999829365842629	2.981057e+02
555.999567795011444	2.980995e+02
557.000175434605808	2.980960e+02
558.001793394211631	2.980950e+02
559.00131092580159	2.980956e+02
560.001546083334915	2.980968e+02
561.002386530925833	2.980982e+02
562.000729949413312	2.980993e+02
562.999653645662534	2.981006e+02
564.00229373021466	2.981029e+02
564.999475585275604	2.981065e+02
566.000311189876584	2.981107e+02
567.001666591151775	2.981142e+02
568.000307677030833	2.981154e+02
569.001989843350998	2.981130e+02
570.000023661687237	2.981062e+02
570.999700393102785	2.980954e+02
572.000439015618099	2.980818e+02
573.002230577215073	2.980669e+02
574.002266792418823	2.980515e+02
575.000829058087334	2.980359e+02
576.001393769855326	2.980207e+02
577.001472104321579	2.980064e+02
578.001635884421603	2.979939e+02
579.002225501488283	2.979836e+02
580.000387462350659	2.979764e+02
581.002380412888328	2.979725e+02
582.002327348264998	2.979712e+02
583.000205700019592	2.979719e+02
584.001947425262415	2.979736e+02
585.001403597161357	2.979758e+02
586.001610182698755	2.979781e+02
586.999474569159929	2.979805e+02
588.001157742226951	2.979835e+02
589.000631909316667	2.979874e+02
590.000920806390923	2.979919e+02
591.001864889442004	2.979956e+02
592.000226401013947	2.979967e+02
593.001883186344003	2.979940e+02
594.000098638576901	2.979871e+02
595.000086811843175	2.979764e+02
596.001196695657427	2.979630e+02
597.000336537858743	2.979481e+02
598.000764526629723	2.979328e+02
598.999522899176213	2.979176e+02
599.99982476013588	2.979027e+02
601.002285755532398	2.978888e+02
602.001591538951516	2.978766e+02
603.001281703943391	2.978661e+02
604.001616661409116	2.978586e+02
604.999745050567526	2.978540e+02
606.001895755989949	2.978522e+02
607.001981525184647	2.978525e+02
607.999884555359131	2.978541e+02
609.001675652836298	2.978566e+02
610.001269377164135	2.978597e+02
