#   Area   : 2.13000e-01
#   Time   areaAverage(T)
0.999427 3.031475e+02
2.00049 3.031485e+02
3.00031 3.031480e+02
3.99973 3.031469e+02
4.99982 3.031450e+02
6.00096 3.031425e+02
7.00036 3.031392e+02
8.00025 3.031345e+02
8.99988 3.031275e+02
10.001085 3.031166e+02
11.000692 3.030979e+02
12.001192 3.030741e+02
12.999654 3.030540e+02
14.001553 3.030421e+02
15.00191378 3.030385e+02
15.99990726 3.030383e+02
17.00021302 3.030395e+02
18.00201162 3.030405e+02
19.001665 3.030417e+02
20.001063064 3.030452e+02
21.000223408 3.030507e+02
22.000868674 3.030562e+02
22.999568146 3.030606e+02
24.00203262 3.030636e+02
25.00206209729 3.030656e+02
25.9997240433 3.030667e+02
27.00155800819 3.030672e+02
28.00198841907 3.030670e+02
29.00100132413 3.030661e+02
30.0012255059946 3.030648e+02
31.0020125996283 3.030630e+02
31.9997203434261 3.030612e+02
33.0000159367413 3.030600e+02
33.9999993471484 3.030619e+02
35.0001409482367123 3.030681e+02
36.0010399662744121 3.030787e+02
37.000256075600312 3.030941e+02
38.0011334139074748 3.031125e+02
39.0001093232681626 3.031323e+02
39.9994296677075454 3.031513e+02
41.001577972869228 3.031685e+02
42.000199945820512 3.031840e+02
43.0015357555295594 3.031978e+02
44.0000908474563985 3.032101e+02
44.999720034311153 3.032215e+02
46.0011036185372717 3.032324e+02
47.0017015365830488 3.032432e+02
48.001828578469862 3.032546e+02
49.0009987208578792 3.032669e+02
50.001646775172766 3.032804e+02
51.0004873107095733 3.032953e+02
52.0004965650810149 3.033113e+02
53.0016782245142934 3.033280e+02
54.0010911490910033 3.033450e+02
55.0018322131206503 3.033619e+02
56.0008311045826801 3.033784e+02
57.0009505745707656 3.033947e+02
58.0018173874204663 3.034106e+02
58.9998754286462415 3.034261e+02
60.0007253884735974 3.034414e+02
61.000729949421661 3.034564e+02
61.9994469747591523 3.034712e+02
62.9997307278246481 3.034859e+02
64.0016132336676264 3.035005e+02
65.0021195847200062 3.035152e+02
66.0013755148593475 3.035301e+02
66.9994618408717173 3.035450e+02
67.9995567282688285 3.035603e+02
69.0018710907051513 3.035756e+02
70.0005020403649496 3.035910e+02
71.0017759000867983 3.036065e+02
71.9997917061677697 3.036220e+02
73.0007626398363385 3.036377e+02
74.0017781164737585 3.036537e+02
74.9999419786135348 3.036698e+02
76.0015844890211554 3.036864e+02
77.00072239299773 3.037031e+02
78.0004746440082357 3.037202e+02
79.0007523688503994 3.037374e+02
80.0017080025030367 3.037548e+02
81.0004119802447349 3.037718e+02
81.9999292237897635 3.037739e+02
83.0001885797195058 3.037669e+02
84.0008505180802274 3.037560e+02
85.0015387397775584 3.037428e+02
86.0016440249805925 3.037276e+02
87.0005454702849761 3.037109e+02
88.0008545399135187 3.036932e+02
89.0021930695815655 3.036745e+02
90.0016302263138357 3.036552e+02
91.002174366868033 3.036353e+02
92.0010182300664496 3.036147e+02
93.0013450760332745 3.035937e+02
94.0003161743501465 3.035721e+02
95.0010570184568053 3.035499e+02
96.0007746328522842 3.035270e+02
96.9996630297850828 3.035035e+02
98.0009484938242394 3.034794e+02
99.0017864968606887 3.034548e+02
99.9993158549129504 3.034298e+02
100.999686726631666 3.034039e+02
101.999978489330886 3.033772e+02
103.000261993464633 3.033499e+02
104.000541499501338 3.033219e+02
105.000800443492778 3.032932e+02
106.001026051885219 3.032640e+02
107.001221026466325 3.032342e+02
108.001370521164162 3.032038e+02
109.001483834954172 3.031728e+02
110.001570880767829 3.031414e+02
111.001639397267027 3.031095e+02
112.001691850402395 3.030771e+02
113.001723550038278 3.030441e+02
114.001722531996805 3.030104e+02
115.001688189451627 3.029759e+02
116.001613455088133 3.029410e+02
117.001515885901682 3.029056e+02
118.001399825818325 3.028700e+02
119.00127979677535 3.028340e+02
120.001166177764588 3.027977e+02
121.001081732862403 3.027609e+02
122.001048584949245 3.027236e+02
123.001071870744425 3.026855e+02
124.001154706657402 3.026473e+02
125.001275712311497 3.026089e+02
126.001409099885151 3.025700e+02
127.001505571405914 3.025313e+02
128.001520918692876 3.024920e+02
129.001402911285169 3.024527e+02
130.001116511936488 3.024140e+02
131.000614246332248 3.023759e+02
131.999921018561707 3.023380e+02
133.002057892161417 3.022998e+02
134.001047481116501 3.022610e+02
134.999918542921648 3.022222e+02
136.001802808679997 3.021836e+02
137.000722192789738 3.021451e+02
137.999722857611772 3.021075e+02
139.001822047630924 3.020707e+02
140.001006477596889 3.020342e+02
141.000279937221819 3.019969e+02
141.999610839514531 3.019581e+02
143.002000997207233 3.019185e+02
144.001416430672435 3.018788e+02
145.000845281827281 3.018385e+02
146.000219852035571 3.017978e+02
146.999516132038053 3.017567e+02
148.001580804985281 3.017155e+02
149.00037623196738 3.016739e+02
150.002041994228136 3.016310e+02
151.000659972712299 3.015868e+02
151.999442445215436 3.015414e+02
153.001677289877819 3.014951e+02
154.00172177073722 3.014475e+02
154.999891828328799 3.014011e+02
155.999586603544287 3.013539e+02
157.001135382558516 3.013065e+02
158.001515024317882 3.012605e+02
159.000452904609233 3.012163e+02
160.000936841011566 3.011726e+02
160.999840760413548 3.011283e+02
162.000128449045548 3.010832e+02
163.001721118222179 3.010371e+02
164.001466615174991 3.009888e+02
164.999469516720637 3.009378e+02
166.001895769050151 3.008863e+02
166.999623230678878 3.008364e+02
168.001980176455106 3.007888e+02
168.999797111832464 3.007446e+02
169.999327931056797 3.007012e+02
171.000741704657912 3.006547e+02
172.000933317836058 3.006039e+02
172.999858258248878 3.005454e+02
174.000459309810481 3.004772e+02
174.999230964081022 3.004034e+02
176.001823974840363 3.003285e+02
177.001677528293413 3.002561e+02
178.001897432278639 3.001884e+02
178.999477284530741 3.001275e+02
180.000876929608779 3.000734e+02
181.000129702013908 3.000245e+02
182.000620718633769 2.999814e+02
182.999341833524653 2.999410e+02
183.999269602900625 2.998998e+02
185.000290159403136 2.998538e+02
185.999138254646653 2.998029e+02
187.00192819901423 2.997507e+02
188.002100753132737 2.997018e+02
188.999401948011354 2.996561e+02
190.000009576696584 2.996096e+02
191.000602512052552 2.995575e+02
192.000903248552049 2.994991e+02
193.000646632122681 2.994388e+02
193.999514181629451 2.993826e+02
195.000731162499932 2.993322e+02
196.001754937982156 2.992877e+02
197.000071045045672 2.992486e+02
198.002007170686312 2.992141e+02
199.000916881997426 2.991843e+02
199.999612353780066 2.991583e+02
201.001058917549273 2.991362e+02
202.002077889812654 2.991197e+02
202.99938204591723 2.991081e+02
204.002095543813795 2.990987e+02
205.000992474260471 2.990875e+02
205.999660504312885 2.990713e+02
207.001238886837569 2.990500e+02
207.999298004801517 2.990253e+02
208.999745348981605 2.989981e+02
210.001458903139991 2.989686e+02
211.000242198910087 2.989387e+02
212.001905389240108 2.989092e+02
213.000223120931452 2.988797e+02
214.001889103766104 2.988491e+02
215.001311938262972 2.988208e+02
216.001580318367957 2.988019e+02
217.001009526045266 2.987839e+02
218.001233887792552 2.987629e+02
219.000201883343749 2.987398e+02
220.000910902737701 2.987160e+02
220.999826318389324 2.986900e+02
221.999484042010948 2.986606e+02
222.999573556478197 2.986318e+02
223.999571260102471 2.986049e+02
224.999167544001807 2.985747e+02
226.001862355567113 2.985437e+02
227.00167849316307 2.985129e+02
228.001230841940497 2.984827e+02
229.000424212989913 2.984539e+02
229.99931272453972 2.984260e+02
231.00035149821332 2.983992e+02
232.000417678477731 2.983734e+02
232.999637483021473 2.983488e+02
234.000027860813049 2.983268e+02
235.001748350051628 2.983087e+02
235.999212579281817 2.982946e+02
237.000768684014673 2.982838e+02
238.000500060854421 2.982764e+02
238.999379413751882 2.982714e+02
240.000061065156473 2.982688e+02
240.999783874352488 2.982674e+02
241.999217412811873 2.982668e+02
243.001333347997786 2.982675e+02
244.000329816981377 2.982701e+02
244.999756118580478 2.982748e+02
245.999764393046519 2.982815e+02
247.000524241728925 2.982904e+02
247.999354188237049 2.983004e+02
248.999494081416515 2.983102e+02
250.001110696175971 2.983192e+02
251.001532993736845 2.983264e+02
252.000921614597075 2.983309e+02
252.999282849031687 2.983319e+02
253.999850497343544 2.983301e+02
255.00004543105274 2.983254e+02
256.000365920649983 2.983189e+02
257.001261638921392 2.983100e+02
257.999548103657958 2.982978e+02
258.99971364117971 2.982817e+02
260.002149025808819 2.982616e+02
261.000921947821837 2.982374e+02
261.99950686948381 2.982082e+02
263.001191272204949 2.981743e+02
263.999778419957408 2.981359e+02
265.00119059435292 2.980942e+02
265.999549940802126 2.980500e+02
267.000749356106553 2.980037e+02
268.000742203287302 2.979580e+02
269.00002621556996 2.979199e+02
270.002192130799926 2.978957e+02
271.001116008764257 2.978877e+02
271.999828284674436 2.978952e+02
273.001202936759398 2.979146e+02
274.001992594249884 2.979409e+02
274.999358152233697 2.979705e+02
276.000078489080693 2.979998e+02
277.001423281625193 2.980250e+02
277.999774269456566 2.980431e+02
279.000338809060509 2.980552e+02
279.999803239072378 2.980609e+02
281.00199923250301 2.980608e+02
282.001237742896592 2.980567e+02
283.000845865006283 2.980498e+02
284.000919283847736 2.980413e+02
285.001505169815289 2.980324e+02
286.001983379887918 2.980244e+02
287.000860649189406 2.980207e+02
287.99976925718363 2.980272e+02
289.001216652992298 2.980455e+02
289.999289276536729 2.980688e+02
291.001202684429529 2.980889e+02
292.001880769330967 2.981024e+02
293.001939873465119 2.981077e+02
294.001406762787269 2.981056e+02
294.999860841462578 2.980974e+02
296.00082332633508 2.980838e+02
296.999440942767023 2.980631e+02
297.999750996092871 2.980362e+02
299.001606963360757 2.980055e+02
300.00096349475109 2.979734e+02
300.999913314513492 2.979424e+02
302.001050523417859 2.979160e+02
303.001211162612037 2.978968e+02
304.000530831946662 2.978843e+02
304.999600659278087 2.978769e+02
306.001009509919697 2.978711e+02
307.001474429075984 2.978632e+02
308.001896955747839 2.978540e+02
309.00215953038952 2.978451e+02
310.002016522719316 2.978378e+02
311.002156067684552 2.978305e+02
312.000057874843549 2.978221e+02
313.001700906769599 2.978120e+02
314.000664442998186 2.978018e+02
314.99977162945703 2.977909e+02
316.001939997220234 2.977797e+02
317.000997667292268 2.977693e+02
317.999963426011846 2.977605e+02
319.001791186184562 2.977536e+02
320.000219021556404 2.977483e+02
321.001332443899855 2.977437e+02
322.002120766446581 2.977395e+02
322.999613956139115 2.977361e+02
324.000053809379779 2.977341e+02
325.000468122121561 2.977323e+02
326.000890696256192 2.977293e+02
327.001340404046516 2.977247e+02
328.00182603880279 2.977180e+02
328.999278542550144 2.977102e+02
329.999826816678308 2.977021e+02
331.000443477589613 2.976937e+02
332.001169817488744 2.976852e+02
333.002032037401875 2.976772e+02
333.999965515217639 2.976693e+02
335.001063632408773 2.976616e+02
335.999158109576854 2.976538e+02
337.000345463513611 2.976461e+02
338.001581848732201 2.976388e+02
338.999866861473265 2.976317e+02
340.001419974520957 2.976255e+02
341.000218753709873 2.976199e+02
341.99940043036537 2.976142e+02
343.002081691835315 2.976078e+02
344.002165716201716 2.976004e+02
344.999681204456522 2.975920e+02
346.000781392031456 2.975829e+02
346.999334514526993 2.975732e+02
348.001509094679818 2.975629e+02
349.001161782293025 2.975518e+02
350.001326394200078 2.975403e+02
351.001923782794222 2.975284e+02
351.999787371269576 2.975159e+02
353.00099769186096 2.975022e+02
353.999316873669443 2.974887e+02
355.00082920103489 2.974757e+02
355.999300697844262 2.974635e+02
357.000823793166319 2.974524e+02
357.999158030478213 2.974426e+02
359.00039992939594 2.974343e+02
360.001480671131844 2.974266e+02
360.9992815597804 2.974201e+02
361.999832472127878 2.974153e+02
362.999959745167416 2.974115e+02
363.999605892666068 2.974083e+02
365.001835951716942 2.974047e+02
366.000550017272076 2.974002e+02
367.0018850279655 2.973957e+02
367.999670433758126 2.973913e+02
369.000128039733795 2.973873e+02
370.000214705158442 2.973829e+02
370.999868519623192 2.973783e+02
371.999156450469172 2.973733e+02
373.001216022510619 2.973682e+02
373.999974084365817 2.973629e+02
375.001560862041572 2.973573e+02
375.999861740929703 2.973520e+02
377.000967028724972 2.973466e+02
378.001810983407267 2.973411e+02
378.999377343020058 2.973355e+02
379.999844133061458 2.973298e+02
381.000195256176255 2.973238e+02
382.000470770755555 2.973172e+02
383.000719578955398 2.973103e+02
384.000990581364249 2.973031e+02
385.001323372423997 2.972959e+02
386.001754888625783 2.972888e+02
386.999259078537648 2.972820e+02
387.999985820435654 2.972755e+02
389.000904470221769 2.972695e+02
390.002048686420665 2.972640e+02
391.000391269022714 2.972591e+02
392.002080357299462 2.972542e+02
393.001021889200786 2.972496e+02
394.000313761127586 2.972449e+02
394.999966805718827 2.972397e+02
396.000000737495156 2.972341e+02
397.000431194506007 2.972278e+02
398.001243466568894 2.972208e+02
398.999326681304808 2.972129e+02
400.000751341692762 2.972047e+02
400.999281060359692 2.971963e+02
402.000994149161556 2.971881e+02
402.999669211328353 2.971798e+02
404.001383904857562 2.971721e+02
404.999927130870162 2.971655e+02
406.001391002587809 2.971603e+02
406.999601684736604 2.971561e+02
408.000681472226745 2.971523e+02
409.001550340285974 2.971486e+02
410.002200812724368 2.971453e+02
410.999564337494576 2.971419e+02
411.999771379263905 2.971378e+02
412.999742635731366 2.971329e+02
413.999472666726717 2.971276e+02
415.002027021528761 2.971220e+02
416.001265735712195 2.971165e+02
417.00027961065382 2.971108e+02
418.002168361128668 2.971053e+02
419.000830570643586 2.971002e+02
419.999348062550951 2.970958e+02
421.000807412155893 2.970921e+02
422.002161809745814 2.970885e+02
423.000363478224813 2.970844e+02
424.001518449690877 2.970794e+02
424.999464893304832 2.970736e+02
426.00030369292142 2.970676e+02
427.00099127452637 2.970613e+02
428.001568160606212 2.970553e+02
429.002064812169294 2.970491e+02
429.99944102865561 2.970427e+02
430.999824061049083 2.970356e+02
432.000154087404724 2.970285e+02
433.000424325204449 2.970214e+02
434.00062092770537 2.970142e+02
435.000747573658373 2.970071e+02
436.00084101232062 2.970004e+02
437.000947099993482 2.969945e+02
438.001104957034727 2.969892e+02
439.001372516108916 2.969842e+02
440.001793093184403 2.969794e+02
440.999341095092859 2.969748e+02
442.000174895068085 2.969700e+02
443.001292886892941 2.969652e+02
443.999676892359332 2.969599e+02
445.001468249921118 2.969536e+02
446.0005412841561 2.969464e+02
446.999933551698859 2.969380e+02
447.99957269268856 2.969288e+02
448.99935313418041 2.969193e+02
449.99913949586778 2.969097e+02
451.001905425055099 2.969007e+02
452.001449724326449 2.968934e+02
453.000827018742655 2.968882e+02
454.000060016313171 2.968849e+02
455.002198157437931 2.968828e+02
456.001073655338701 2.968811e+02
456.999732738333421 2.968790e+02
458.00123783219243 2.968753e+02
458.999413706459279 2.968673e+02
460.000163836696743 2.968573e+02
461.000336822645636 2.968492e+02
462.000008779407551 2.968432e+02
462.999244201045997 2.968377e+02
464.001249828436698 2.968327e+02
465.000203846986892 2.968288e+02
465.999385247298903 2.968254e+02
467.001996124994605 2.968220e+02
468.001911059253757 2.968182e+02
469.002115217306198 2.968137e+02
469.999556206629677 2.968089e+02
471.000370882605068 2.968028e+02
472.001484397526838 2.967947e+02
472.999698394739198 2.967848e+02
474.000987097669451 2.967744e+02
475.002187011345541 2.967645e+02
476.000185397848838 2.967564e+02
477.001116975836737 2.967498e+02
478.001946023577034 2.967443e+02
478.999609814288533 2.967393e+02
480.000200582974514 2.967346e+02
481.000640765223636 2.967301e+02
482.000880314070741 2.967249e+02
483.000829945069484 2.967179e+02
484.000391984001851 2.967091e+02
484.999473983508892 2.967006e+02
486.001053223926704 2.966931e+02
487.002066538891711 2.966866e+02
487.999538386941651 2.966812e+02
488.999719400701622 2.966775e+02
489.999787496733063 2.966752e+02
490.999996222002039 2.966734e+02
492.000537937488446 2.966715e+02
493.001528185545851 2.966695e+02
494.000043348333691 2.966660e+02
494.999208302570253 2.966607e+02
496.002054096217819 2.966530e+02
496.999285033710748 2.966427e+02
497.999897188854902 2.966309e+02
499.000681167292043 2.966197e+02
500.001558474786805 2.966100e+02
500.999446010016641 2.966022e+02
502.000461577364092 2.965959e+02
503.001519412383175 2.965903e+02
503.999515874213841 2.965857e+02
505.000534591473297 2.965819e+02
506.001509888547616 2.965749e+02
507.002099204861224 2.965657e+02
508.001952459607026 2.965559e+02
509.000755663345956 2.965465e+02
510.001486862218997 2.965386e+02
511.001232487120603 2.965319e+02
512.000177563831585 2.965260e+02
513.001789287909901 2.965225e+02
514.00046415512486 2.965203e+02
514.99955479442508 2.965183e+02
515.999219044049141 2.965165e+02
516.999511772298206 2.965154e+02
518.000472374905598 2.965140e+02
519.002131619636771 2.965111e+02
520.001384632439681 2.965046e+02
521.001150454765366 2.964946e+02
522.001295794907037 2.964828e+02
523.001754521802923 2.964714e+02
523.999434406018167 2.964607e+02
525.000470145184181 2.964518e+02
526.001803413179573 2.964445e+02
527.000354396031071 2.964382e+02
527.99915328792224 2.964320e+02
529.001163035952914 2.964244e+02
529.999964345861144 2.964137e+02
531.0012454994461 2.964023e+02
532.001321133686361 2.963933e+02
532.999861796665527 2.963860e+02
534.000023953975301 2.963797e+02
535.001875234300201 2.963735e+02
535.99940115798131 2.963682e+02
536.99917090518386 2.963643e+02
538.001702907333424 2.963616e+02
539.001307213403038 2.963591e+02
540.001295571197147 2.963570e+02
541.001852747266639 2.963567e+02
542.000113862146009 2.963569e+02
542.99925261236649 2.963560e+02
543.999244945956434 2.963517e+02
544.999955860121077 2.963440e+02
546.001297232400361 2.963343e+02
547.000192963765812 2.963237e+02
547.999705276214399 2.963141e+02
548.9999173700038 2.963056e+02
550.000837994252493 2.962976e+02
550.999345650914734 2.962886e+02
552.001515635922487 2.962775e+02
553.001105488295934 2.962652e+02
554.00082469309541 2.962502e+02
555.000167760328509 2.962346e+02
556.001365889407907 2.962210e+02
557.000740602278597 2.962118e+02
558.001320209851997 2.962062e+02
559.000110213892867 2.962023e+02
560.000262559516386 2.961986e+02
560.99926184051003 2.961951e+02
562.0006160463181 2.961921e+02
563.00174009765351 2.961905e+02
564.00014104622926 2.961894e+02
564.999154569082179 2.961889e+02
566.001965079634488 2.961881e+02
566.999655573543009 2.961869e+02
568.001384470371249 2.961837e+02
569.000945280324004 2.961788e+02
570.001321185949223 2.961732e+02
570.999458110319438 2.961775e+02
572.001425298497111 2.961864e+02
573.001173122025079 2.961971e+02
574.001841467247459 2.962087e+02
575.000341047316283 2.962195e+02
575.999699363241348 2.962271e+02
576.999717356763654 2.962308e+02
577.999989358568769 2.962298e+02
578.999885849153543 2.962280e+02
580.001639232646653 2.962302e+02
581.001398899649303 2.962377e+02
582.001953020691985 2.962501e+02
583.000404394710699 2.962653e+02
584.000040789207219 2.962826e+02
585.000977102296929 2.963015e+02
586.000530345756715 2.963214e+02
586.999390607787518 2.963415e+02
588.001144122878259 2.963627e+02
589.000134475393111 2.963836e+02
589.999604690043157 2.964047e+02
590.999772563084207 2.964260e+02
592.000714664528573 2.964478e+02
592.999309139145566 2.964688e+02
594.001520821552276 2.964894e+02
595.001288064761411 2.965101e+02
596.001723137116073 2.965308e+02
596.999821477810087 2.965501e+02
598.00163901190831 2.965672e+02
599.001081933450678 2.965813e+02
600.001234037939525 2.965924e+02
601.001940910154531 2.966008e+02
601.999837888485331 2.966068e+02
603.00074770668266 2.966120e+02
604.001417181059651 2.966192e+02
605.001687215290872 2.966303e+02
606.001423520980666 2.966455e+02
607.000513557763156 2.966639e+02
608.00201169442164 2.966839e+02
609.000056043756331 2.967055e+02
610.001065509754426 2.967294e+02
610.999322067287608 2.967566e+02
612.001290099475682 2.967864e+02
613.00120910368264 2.968183e+02
613.999153626805764 2.968510e+02
615.001215520064648 2.968832e+02
